'sample interval','i','ii','iii','avr','avl','avf','v1','v2','v3','v4','v5','v6','vx','vy','vz'
'0.001 sec','mV','mV','mV','mV','mV','mV','mV','mV','mV','mV','mV','mV','mV','mV','mV'
0,0.058,-0.510,-0.567,0.226,0.312,-0.538,0.238,0.305,0.630,0.549,0.621,0.560,0.152,-0.720,-0.066
1,0.055,-0.505,-0.560,0.225,0.308,-0.533,0.238,0.299,0.627,0.542,0.616,0.556,0.148,-0.716,-0.065
2,0.051,-0.502,-0.553,0.225,0.302,-0.527,0.237,0.300,0.628,0.542,0.618,0.558,0.149,-0.711,-0.066
3,0.047,-0.506,-0.552,0.229,0.300,-0.529,0.234,0.299,0.626,0.540,0.616,0.557,0.147,-0.708,-0.065
4,0.044,-0.515,-0.558,0.235,0.301,-0.537,0.238,0.297,0.625,0.538,0.612,0.553,0.143,-0.718,-0.066
5,0.052,-0.507,-0.558,0.227,0.305,-0.532,0.236,0.294,0.623,0.534,0.611,0.553,0.143,-0.722,-0.067
6,0.054,-0.494,-0.548,0.220,0.301,-0.521,0.232,0.290,0.619,0.532,0.610,0.549,0.143,-0.704,-0.070
7,0.054,-0.496,-0.549,0.221,0.302,-0.523,0.227,0.284,0.612,0.527,0.609,0.546,0.141,-0.708,-0.068
8,0.053,-0.497,-0.549,0.222,0.301,-0.523,0.227,0.283,0.611,0.529,0.611,0.549,0.144,-0.714,-0.066
9,0.058,-0.495,-0.553,0.218,0.305,-0.524,0.228,0.286,0.615,0.531,0.611,0.549,0.145,-0.706,-0.067
10,0.057,-0.498,-0.554,0.220,0.305,-0.526,0.230,0.287,0.620,0.531,0.611,0.549,0.144,-0.703,-0.068
11,0.054,-0.502,-0.556,0.224,0.305,-0.529,0.234,0.292,0.623,0.535,0.612,0.549,0.144,-0.710,-0.070
12,0.059,-0.504,-0.564,0.222,0.312,-0.534,0.229,0.287,0.618,0.532,0.611,0.550,0.145,-0.713,-0.066
13,0.057,-0.505,-0.561,0.224,0.309,-0.533,0.228,0.286,0.618,0.533,0.612,0.552,0.148,-0.707,-0.066
14,0.053,-0.502,-0.555,0.224,0.304,-0.529,0.228,0.287,0.619,0.532,0.613,0.553,0.153,-0.709,-0.064
15,0.048,-0.503,-0.551,0.227,0.300,-0.527,0.231,0.286,0.615,0.531,0.612,0.554,0.155,-0.718,-0.061
16,0.044,-0.516,-0.560,0.235,0.302,-0.538,0.228,0.287,0.613,0.532,0.610,0.552,0.150,-0.722,-0.061
17,0.043,-0.521,-0.564,0.238,0.303,-0.542,0.227,0.284,0.616,0.533,0.611,0.553,0.147,-0.720,-0.062
18,0.049,-0.515,-0.564,0.233,0.306,-0.539,0.229,0.282,0.614,0.533,0.611,0.554,0.150,-0.720,-0.062
19,0.052,-0.513,-0.565,0.230,0.309,-0.539,0.220,0.280,0.610,0.530,0.611,0.553,0.150,-0.718,-0.059
20,0.048,-0.507,-0.554,0.229,0.301,-0.531,0.224,0.278,0.607,0.527,0.609,0.552,0.148,-0.716,-0.059
21,0.044,-0.502,-0.545,0.228,0.295,-0.524,0.225,0.277,0.605,0.526,0.611,0.553,0.148,-0.712,-0.059
22,0.049,-0.496,-0.545,0.223,0.297,-0.521,0.228,0.279,0.609,0.530,0.614,0.556,0.151,-0.710,-0.060
23,0.056,-0.489,-0.544,0.216,0.300,-0.517,0.233,0.283,0.611,0.532,0.616,0.561,0.154,-0.709,-0.060
24,0.053,-0.500,-0.553,0.223,0.303,-0.526,0.230,0.282,0.613,0.531,0.618,0.562,0.154,-0.713,-0.058
25,0.055,-0.501,-0.556,0.223,0.306,-0.529,0.225,0.279,0.610,0.529,0.616,0.561,0.155,-0.714,-0.058
26,0.057,-0.489,-0.546,0.216,0.301,-0.518,0.222,0.274,0.601,0.523,0.613,0.560,0.159,-0.706,-0.059
27,0.053,-0.491,-0.544,0.218,0.299,-0.518,0.222,0.271,0.600,0.520,0.612,0.558,0.157,-0.710,-0.057
28,0.058,-0.492,-0.549,0.216,0.303,-0.520,0.219,0.271,0.601,0.519,0.613,0.560,0.158,-0.705,-0.059
29,0.067,-0.491,-0.557,0.211,0.312,-0.524,0.218,0.272,0.597,0.521,0.613,0.560,0.161,-0.694,-0.059
30,0.062,-0.496,-0.558,0.216,0.310,-0.527,0.222,0.276,0.601,0.524,0.616,0.559,0.163,-0.707,-0.057
31,0.057,-0.507,-0.564,0.225,0.310,-0.535,0.220,0.272,0.600,0.521,0.616,0.560,0.161,-0.717,-0.056
32,0.054,-0.512,-0.566,0.228,0.310,-0.539,0.220,0.270,0.604,0.525,0.618,0.562,0.162,-0.711,-0.057
33,0.046,-0.506,-0.553,0.229,0.300,-0.530,0.225,0.279,0.606,0.525,0.619,0.563,0.161,-0.711,-0.058
34,0.049,-0.504,-0.552,0.227,0.301,-0.528,0.221,0.276,0.599,0.520,0.614,0.561,0.159,-0.721,-0.055
35,0.040,-0.511,-0.550,0.234,0.295,-0.530,0.223,0.273,0.599,0.520,0.611,0.558,0.155,-0.717,-0.054
36,0.037,-0.518,-0.555,0.240,0.296,-0.537,0.228,0.275,0.600,0.521,0.610,0.555,0.149,-0.715,-0.054
37,0.041,-0.522,-0.562,0.240,0.301,-0.542,0.224,0.273,0.598,0.519,0.609,0.553,0.148,-0.723,-0.055
38,0.037,-0.521,-0.558,0.241,0.298,-0.539,0.224,0.273,0.599,0.520,0.610,0.554,0.150,-0.722,-0.055
39,0.045,-0.512,-0.556,0.233,0.301,-0.534,0.226,0.276,0.600,0.522,0.611,0.554,0.149,-0.719,-0.056
40,0.044,-0.509,-0.552,0.232,0.298,-0.531,0.230,0.275,0.600,0.520,0.609,0.555,0.147,-0.720,-0.057
41,0.045,-0.506,-0.551,0.230,0.298,-0.529,0.224,0.269,0.596,0.517,0.607,0.554,0.149,-0.721,-0.057
42,0.048,-0.501,-0.549,0.227,0.298,-0.525,0.224,0.267,0.593,0.515,0.607,0.555,0.148,-0.710,-0.056
43,0.043,-0.501,-0.544,0.229,0.293,-0.522,0.227,0.268,0.593,0.516,0.609,0.557,0.145,-0.705,-0.055
44,0.043,-0.507,-0.550,0.231,0.297,-0.528,0.224,0.264,0.596,0.516,0.609,0.557,0.144,-0.717,-0.055
45,0.051,-0.504,-0.555,0.226,0.303,-0.530,0.225,0.268,0.598,0.515,0.611,0.560,0.145,-0.715,-0.054
46,0.060,-0.491,-0.551,0.214,0.306,-0.521,0.220,0.266,0.593,0.510,0.609,0.559,0.148,-0.707,-0.054
47,0.059,-0.494,-0.552,0.217,0.305,-0.523,0.219,0.264,0.592,0.510,0.609,0.558,0.148,-0.713,-0.055
48,0.054,-0.495,-0.549,0.220,0.302,-0.522,0.221,0.266,0.595,0.514,0.612,0.562,0.148,-0.713,-0.055
49,0.051,-0.498,-0.548,0.223,0.299,-0.523,0.223,0.264,0.593,0.513,0.613,0.562,0.147,-0.704,-0.055
50,0.045,-0.505,-0.550,0.230,0.298,-0.528,0.224,0.265,0.595,0.515,0.614,0.564,0.146,-0.708,-0.056
51,0.040,-0.513,-0.552,0.235,0.296,-0.532,0.224,0.266,0.596,0.517,0.614,0.565,0.147,-0.717,-0.052
52,0.036,-0.518,-0.553,0.240,0.294,-0.535,0.227,0.267,0.598,0.518,0.615,0.566,0.145,-0.718,-0.053
53,0.041,-0.514,-0.555,0.236,0.298,-0.535,0.226,0.268,0.598,0.518,0.614,0.565,0.144,-0.716,-0.054
54,0.044,-0.512,-0.555,0.234,0.300,-0.533,0.226,0.266,0.596,0.516,0.614,0.564,0.145,-0.717,-0.052
55,0.043,-0.514,-0.555,0.235,0.299,-0.534,0.227,0.266,0.595,0.514,0.612,0.564,0.145,-0.718,-0.053
56,0.043,-0.524,-0.568,0.240,0.305,-0.546,0.226,0.267,0.595,0.513,0.612,0.562,0.145,-0.725,-0.051
57,0.048,-0.523,-0.570,0.237,0.309,-0.546,0.227,0.261,0.598,0.516,0.611,0.560,0.145,-0.727,-0.051
58,0.046,-0.519,-0.565,0.236,0.306,-0.542,0.228,0.266,0.593,0.515,0.610,0.560,0.145,-0.726,-0.051
59,0.040,-0.520,-0.559,0.239,0.300,-0.540,0.225,0.265,0.588,0.512,0.610,0.560,0.145,-0.722,-0.050
60,0.051,-0.511,-0.562,0.229,0.307,-0.536,0.217,0.258,0.589,0.511,0.610,0.558,0.149,-0.719,-0.050
61,0.052,-0.501,-0.552,0.224,0.302,-0.526,0.218,0.262,0.589,0.509,0.611,0.560,0.149,-0.713,-0.051
62,0.045,-0.501,-0.546,0.228,0.296,-0.523,0.221,0.256,0.588,0.508,0.608,0.557,0.147,-0.710,-0.051
63,0.043,-0.508,-0.551,0.232,0.297,-0.530,0.215,0.251,0.581,0.504,0.603,0.553,0.149,-0.715,-0.050
64,0.037,-0.507,-0.544,0.234,0.291,-0.526,0.221,0.260,0.587,0.509,0.607,0.555,0.152,-0.711,-0.051
65,0.044,-0.505,-0.549,0.230,0.297,-0.527,0.222,0.263,0.588,0.509,0.608,0.556,0.148,-0.716,-0.049
66,0.055,-0.491,-0.546,0.217,0.301,-0.519,0.215,0.255,0.580,0.500,0.601,0.552,0.150,-0.703,-0.051
67,0.052,-0.487,-0.538,0.217,0.295,-0.513,0.212,0.252,0.581,0.500,0.600,0.550,0.152,-0.701,-0.052
68,0.043,-0.492,-0.535,0.225,0.289,-0.514,0.211,0.254,0.580,0.500,0.600,0.549,0.150,-0.709,-0.050
69,0.044,-0.492,-0.537,0.224,0.291,-0.515,0.210,0.254,0.581,0.501,0.598,0.549,0.153,-0.711,-0.046
70,0.045,-0.499,-0.544,0.227,0.295,-0.522,0.213,0.251,0.579,0.503,0.599,0.548,0.149,-0.714,-0.045
71,0.048,-0.503,-0.550,0.227,0.299,-0.527,0.214,0.252,0.579,0.502,0.598,0.546,0.146,-0.710,-0.046
72,0.056,-0.503,-0.558,0.223,0.306,-0.530,0.211,0.255,0.584,0.504,0.598,0.549,0.148,-0.712,-0.048
73,0.052,-0.503,-0.555,0.225,0.303,-0.529,0.215,0.254,0.584,0.504,0.600,0.550,0.147,-0.712,-0.050
74,0.049,-0.503,-0.552,0.227,0.300,-0.527,0.213,0.254,0.584,0.503,0.600,0.549,0.146,-0.721,-0.049
75,0.046,-0.508,-0.554,0.230,0.300,-0.531,0.212,0.253,0.582,0.500,0.598,0.549,0.143,-0.721,-0.047
76,0.045,-0.517,-0.561,0.235,0.303,-0.539,0.220,0.254,0.584,0.502,0.598,0.550,0.141,-0.718,-0.047
77,0.042,-0.520,-0.561,0.238,0.301,-0.540,0.221,0.256,0.584,0.504,0.598,0.549,0.141,-0.727,-0.046
78,0.040,-0.519,-0.559,0.239,0.300,-0.539,0.218,0.253,0.581,0.502,0.600,0.550,0.141,-0.735,-0.044
79,0.041,-0.517,-0.557,0.237,0.299,-0.537,0.218,0.256,0.583,0.506,0.601,0.550,0.142,-0.725,-0.048
80,0.038,-0.514,-0.552,0.237,0.295,-0.533,0.216,0.258,0.586,0.507,0.602,0.549,0.143,-0.715,-0.049
81,0.045,-0.506,-0.550,0.230,0.298,-0.528,0.215,0.255,0.584,0.505,0.603,0.552,0.144,-0.723,-0.049
82,0.040,-0.505,-0.544,0.232,0.292,-0.524,0.218,0.255,0.582,0.505,0.602,0.551,0.142,-0.714,-0.049
83,0.042,-0.506,-0.548,0.232,0.295,-0.527,0.211,0.251,0.584,0.507,0.603,0.550,0.143,-0.716,-0.049
84,0.050,-0.503,-0.553,0.226,0.302,-0.528,0.207,0.249,0.580,0.503,0.604,0.552,0.146,-0.719,-0.049
85,0.040,-0.509,-0.547,0.234,0.293,-0.528,0.216,0.252,0.581,0.502,0.606,0.553,0.141,-0.711,-0.050
86,0.036,-0.498,-0.534,0.231,0.285,-0.516,0.220,0.249,0.583,0.504,0.606,0.553,0.141,-0.710,-0.053
87,0.041,-0.488,-0.529,0.223,0.285,-0.509,0.215,0.252,0.579,0.502,0.607,0.553,0.144,-0.703,-0.052
88,0.050,-0.489,-0.538,0.219,0.294,-0.513,0.211,0.246,0.576,0.501,0.608,0.555,0.150,-0.706,-0.049
89,0.049,-0.495,-0.543,0.223,0.296,-0.519,0.210,0.244,0.572,0.499,0.606,0.553,0.149,-0.710,-0.050
90,0.046,-0.502,-0.549,0.228,0.298,-0.526,0.212,0.246,0.576,0.499,0.607,0.554,0.149,-0.712,-0.051
91,0.045,-0.507,-0.552,0.231,0.299,-0.530,0.220,0.250,0.582,0.506,0.610,0.558,0.152,-0.719,-0.050
92,0.035,-0.516,-0.550,0.240,0.292,-0.533,0.223,0.254,0.583,0.507,0.610,0.559,0.150,-0.719,-0.049
93,0.029,-0.520,-0.550,0.245,0.290,-0.535,0.219,0.247,0.579,0.502,0.605,0.555,0.149,-0.710,-0.047
94,0.037,-0.515,-0.551,0.238,0.294,-0.533,0.221,0.248,0.579,0.502,0.604,0.554,0.149,-0.704,-0.049
95,0.047,-0.510,-0.557,0.231,0.302,-0.534,0.220,0.246,0.579,0.501,0.606,0.556,0.149,-0.707,-0.050
96,0.044,-0.517,-0.561,0.236,0.303,-0.539,0.217,0.248,0.581,0.503,0.609,0.557,0.150,-0.715,-0.048
97,0.043,-0.520,-0.562,0.238,0.302,-0.541,0.218,0.251,0.580,0.504,0.606,0.555,0.150,-0.725,-0.047
98,0.048,-0.517,-0.565,0.234,0.306,-0.541,0.217,0.251,0.580,0.505,0.603,0.554,0.150,-0.730,-0.046
99,0.052,-0.513,-0.565,0.230,0.308,-0.539,0.217,0.255,0.583,0.506,0.605,0.554,0.151,-0.724,-0.048
100,0.054,-0.513,-0.568,0.229,0.311,-0.540,0.214,0.250,0.580,0.503,0.604,0.551,0.148,-0.720,-0.049
101,0.041,-0.513,-0.553,0.235,0.297,-0.533,0.217,0.249,0.578,0.501,0.603,0.549,0.145,-0.720,-0.048
102,0.038,-0.510,-0.547,0.235,0.293,-0.529,0.215,0.245,0.576,0.498,0.600,0.547,0.143,-0.716,-0.046
103,0.034,-0.511,-0.544,0.238,0.289,-0.527,0.220,0.249,0.581,0.502,0.603,0.550,0.142,-0.713,-0.047
104,0.026,-0.513,-0.539,0.242,0.283,-0.526,0.226,0.254,0.581,0.505,0.604,0.552,0.140,-0.718,-0.050
105,0.033,-0.517,-0.549,0.241,0.291,-0.533,0.221,0.251,0.578,0.500,0.599,0.548,0.138,-0.730,-0.047
106,0.037,-0.510,-0.547,0.236,0.292,-0.529,0.217,0.248,0.577,0.497,0.598,0.545,0.138,-0.720,-0.046
107,0.040,-0.505,-0.545,0.232,0.293,-0.525,0.216,0.244,0.573,0.494,0.596,0.544,0.138,-0.707,-0.049
108,0.040,-0.504,-0.543,0.232,0.291,-0.524,0.217,0.245,0.574,0.495,0.597,0.546,0.138,-0.710,-0.047
109,0.037,-0.506,-0.543,0.234,0.290,-0.524,0.213,0.244,0.574,0.498,0.599,0.546,0.138,-0.717,-0.045
110,0.043,-0.510,-0.553,0.233,0.298,-0.532,0.213,0.248,0.575,0.497,0.600,0.546,0.139,-0.719,-0.046
111,0.056,-0.511,-0.566,0.227,0.311,-0.538,0.215,0.250,0.576,0.495,0.600,0.548,0.140,-0.717,-0.045
112,0.056,-0.515,-0.570,0.229,0.313,-0.542,0.212,0.241,0.570,0.491,0.600,0.547,0.138,-0.719,-0.044
113,0.053,-0.511,-0.565,0.228,0.309,-0.538,0.210,0.241,0.567,0.491,0.600,0.547,0.140,-0.722,-0.045
114,0.045,-0.509,-0.553,0.231,0.299,-0.531,0.212,0.243,0.571,0.492,0.599,0.549,0.139,-0.722,-0.044
115,0.039,-0.514,-0.552,0.237,0.296,-0.533,0.214,0.245,0.572,0.494,0.597,0.549,0.135,-0.718,-0.045
116,0.038,-0.522,-0.560,0.241,0.300,-0.541,0.216,0.251,0.575,0.498,0.599,0.550,0.135,-0.722,-0.044
117,0.037,-0.528,-0.566,0.245,0.301,-0.547,0.215,0.247,0.574,0.498,0.598,0.550,0.136,-0.722,-0.042
118,0.046,-0.526,-0.573,0.239,0.309,-0.549,0.212,0.244,0.571,0.495,0.597,0.549,0.140,-0.716,-0.042
119,0.046,-0.524,-0.570,0.238,0.308,-0.546,0.206,0.241,0.574,0.497,0.598,0.550,0.141,-0.715,-0.043
120,0.051,-0.514,-0.565,0.232,0.308,-0.539,0.200,0.238,0.572,0.496,0.599,0.551,0.142,-0.720,-0.042
121,0.054,-0.503,-0.556,0.224,0.305,-0.530,0.204,0.241,0.570,0.493,0.601,0.553,0.142,-0.721,-0.043
122,0.042,-0.499,-0.540,0.229,0.291,-0.519,0.204,0.240,0.573,0.496,0.604,0.554,0.143,-0.715,-0.043
123,0.046,-0.498,-0.544,0.226,0.295,-0.521,0.199,0.238,0.570,0.495,0.603,0.555,0.145,-0.711,-0.043
124,0.047,-0.504,-0.550,0.228,0.299,-0.527,0.203,0.238,0.569,0.495,0.601,0.553,0.144,-0.708,-0.045
125,0.042,-0.504,-0.545,0.230,0.294,-0.524,0.209,0.239,0.572,0.495,0.601,0.554,0.143,-0.705,-0.044
126,0.044,-0.499,-0.543,0.227,0.294,-0.521,0.208,0.240,0.572,0.497,0.602,0.556,0.145,-0.707,-0.044
127,0.043,-0.495,-0.538,0.226,0.291,-0.517,0.206,0.237,0.568,0.494,0.603,0.557,0.144,-0.706,-0.045
128,0.049,-0.496,-0.544,0.223,0.297,-0.520,0.209,0.234,0.569,0.491,0.602,0.556,0.145,-0.708,-0.044
129,0.049,-0.501,-0.549,0.226,0.299,-0.525,0.211,0.237,0.570,0.494,0.602,0.556,0.146,-0.711,-0.043
130,0.038,-0.507,-0.545,0.234,0.292,-0.526,0.214,0.241,0.570,0.495,0.606,0.560,0.145,-0.711,-0.044
131,0.036,-0.514,-0.550,0.238,0.293,-0.532,0.218,0.242,0.574,0.499,0.609,0.562,0.147,-0.714,-0.043
132,0.038,-0.516,-0.554,0.238,0.296,-0.535,0.219,0.243,0.577,0.501,0.611,0.565,0.151,-0.719,-0.041
133,0.044,-0.517,-0.560,0.236,0.302,-0.539,0.215,0.243,0.575,0.500,0.610,0.563,0.150,-0.723,-0.043
134,0.051,-0.513,-0.564,0.230,0.307,-0.538,0.214,0.243,0.573,0.496,0.607,0.562,0.148,-0.727,-0.043
135,0.048,-0.514,-0.561,0.232,0.305,-0.537,0.213,0.240,0.573,0.496,0.607,0.560,0.144,-0.731,-0.043
136,0.043,-0.523,-0.566,0.240,0.304,-0.544,0.214,0.244,0.579,0.503,0.611,0.563,0.143,-0.730,-0.043
137,0.046,-0.524,-0.571,0.238,0.308,-0.547,0.213,0.244,0.578,0.502,0.613,0.566,0.143,-0.730,-0.042
138,0.043,-0.525,-0.569,0.240,0.306,-0.547,0.208,0.239,0.575,0.501,0.611,0.562,0.142,-0.730,-0.043
139,0.037,-0.525,-0.561,0.243,0.299,-0.543,0.218,0.244,0.579,0.502,0.609,0.562,0.143,-0.724,-0.044
140,0.046,-0.515,-0.561,0.234,0.304,-0.538,0.210,0.241,0.572,0.494,0.604,0.556,0.142,-0.727,-0.041
141,0.049,-0.511,-0.559,0.231,0.304,-0.535,0.207,0.238,0.568,0.490,0.601,0.552,0.141,-0.726,-0.041
142,0.044,-0.507,-0.551,0.231,0.298,-0.529,0.213,0.237,0.568,0.489,0.599,0.551,0.142,-0.718,-0.043
143,0.045,-0.507,-0.552,0.230,0.299,-0.530,0.206,0.234,0.568,0.489,0.598,0.550,0.146,-0.717,-0.039
144,0.047,-0.508,-0.554,0.230,0.301,-0.531,0.206,0.236,0.567,0.489,0.597,0.550,0.145,-0.716,-0.040
145,0.050,-0.504,-0.554,0.226,0.302,-0.529,0.198,0.233,0.565,0.486,0.595,0.548,0.144,-0.721,-0.042
146,0.046,-0.499,-0.545,0.226,0.296,-0.522,0.203,0.232,0.562,0.484,0.593,0.547,0.145,-0.717,-0.040
147,0.043,-0.492,-0.535,0.225,0.289,-0.514,0.208,0.232,0.561,0.482,0.592,0.546,0.145,-0.709,-0.040
148,0.045,-0.491,-0.536,0.223,0.291,-0.514,0.204,0.229,0.561,0.483,0.592,0.545,0.147,-0.713,-0.038
149,0.043,-0.490,-0.533,0.223,0.288,-0.511,0.206,0.231,0.564,0.485,0.593,0.545,0.145,-0.705,-0.039
150,0.040,-0.496,-0.535,0.228,0.288,-0.515,0.204,0.230,0.564,0.485,0.592,0.545,0.142,-0.707,-0.040
151,0.041,-0.505,-0.545,0.232,0.293,-0.525,0.207,0.230,0.564,0.487,0.594,0.544,0.142,-0.712,-0.038
152,0.041,-0.508,-0.549,0.233,0.295,-0.529,0.209,0.235,0.569,0.490,0.596,0.545,0.142,-0.714,-0.040
153,0.038,-0.510,-0.548,0.235,0.294,-0.529,0.208,0.235,0.567,0.489,0.594,0.542,0.141,-0.714,-0.042
154,0.039,-0.507,-0.545,0.234,0.292,-0.526,0.212,0.234,0.565,0.489,0.593,0.542,0.142,-0.710,-0.041
155,0.049,-0.505,-0.553,0.228,0.301,-0.529,0.212,0.234,0.567,0.491,0.596,0.543,0.142,-0.727,-0.041
156,0.041,-0.520,-0.561,0.239,0.301,-0.541,0.210,0.233,0.566,0.492,0.596,0.544,0.141,-0.722,-0.041
157,0.028,-0.528,-0.555,0.249,0.292,-0.542,0.211,0.234,0.567,0.492,0.597,0.545,0.139,-0.720,-0.040
158,0.041,-0.514,-0.555,0.236,0.298,-0.534,0.216,0.238,0.572,0.495,0.600,0.548,0.140,-0.724,-0.042
159,0.045,-0.512,-0.557,0.233,0.302,-0.534,0.215,0.237,0.571,0.494,0.599,0.549,0.141,-0.715,-0.044
160,0.041,-0.510,-0.550,0.234,0.295,-0.530,0.213,0.234,0.570,0.493,0.597,0.546,0.139,-0.711,-0.043
161,0.040,-0.505,-0.544,0.232,0.292,-0.525,0.211,0.234,0.570,0.493,0.595,0.545,0.138,-0.705,-0.043
162,0.040,-0.501,-0.541,0.230,0.290,-0.521,0.208,0.234,0.565,0.489,0.595,0.543,0.136,-0.709,-0.043
163,0.046,-0.499,-0.545,0.226,0.296,-0.522,0.208,0.229,0.560,0.488,0.593,0.544,0.135,-0.711,-0.042
164,0.050,-0.506,-0.555,0.228,0.302,-0.531,0.207,0.228,0.561,0.487,0.591,0.545,0.138,-0.712,-0.041
165,0.045,-0.504,-0.549,0.229,0.297,-0.527,0.210,0.232,0.564,0.488,0.593,0.546,0.138,-0.714,-0.043
166,0.049,-0.498,-0.546,0.224,0.298,-0.522,0.208,0.231,0.564,0.489,0.593,0.546,0.138,-0.717,-0.044
167,0.054,-0.493,-0.546,0.219,0.300,-0.520,0.206,0.231,0.564,0.488,0.593,0.545,0.139,-0.708,-0.044
168,0.045,-0.494,-0.539,0.224,0.292,-0.517,0.207,0.231,0.564,0.488,0.593,0.545,0.136,-0.701,-0.044
169,0.040,-0.499,-0.539,0.229,0.290,-0.519,0.206,0.231,0.562,0.487,0.590,0.542,0.131,-0.702,-0.044
170,0.051,-0.495,-0.545,0.222,0.298,-0.520,0.204,0.231,0.562,0.488,0.591,0.542,0.133,-0.705,-0.044
171,0.051,-0.500,-0.550,0.224,0.301,-0.525,0.204,0.230,0.562,0.490,0.592,0.545,0.137,-0.721,-0.041
172,0.041,-0.509,-0.550,0.234,0.296,-0.530,0.207,0.225,0.556,0.485,0.589,0.542,0.135,-0.717,-0.038
173,0.046,-0.503,-0.549,0.228,0.298,-0.526,0.207,0.231,0.561,0.486,0.589,0.542,0.134,-0.709,-0.042
174,0.040,-0.503,-0.542,0.231,0.291,-0.523,0.207,0.236,0.566,0.489,0.590,0.542,0.136,-0.714,-0.042
175,0.027,-0.512,-0.539,0.241,0.283,-0.525,0.208,0.234,0.562,0.487,0.587,0.541,0.134,-0.719,-0.039
176,0.035,-0.514,-0.548,0.239,0.291,-0.531,0.210,0.239,0.568,0.491,0.591,0.546,0.134,-0.730,-0.038
177,0.043,-0.514,-0.556,0.235,0.300,-0.535,0.211,0.236,0.568,0.493,0.595,0.549,0.136,-0.733,-0.039
178,0.048,-0.508,-0.556,0.229,0.302,-0.532,0.208,0.235,0.566,0.492,0.594,0.550,0.140,-0.719,-0.040
179,0.046,-0.502,-0.548,0.228,0.297,-0.525,0.209,0.237,0.567,0.496,0.596,0.552,0.139,-0.712,-0.041
180,0.043,-0.502,-0.545,0.229,0.295,-0.524,0.204,0.232,0.565,0.490,0.593,0.548,0.133,-0.716,-0.043
181,0.039,-0.498,-0.537,0.229,0.288,-0.518,0.207,0.231,0.561,0.488,0.592,0.545,0.132,-0.709,-0.045
182,0.041,-0.491,-0.531,0.224,0.286,-0.511,0.211,0.234,0.563,0.489,0.593,0.547,0.134,-0.703,-0.046
183,0.046,-0.489,-0.535,0.221,0.291,-0.512,0.211,0.235,0.567,0.492,0.594,0.547,0.136,-0.706,-0.046
184,0.043,-0.499,-0.542,0.227,0.293,-0.520,0.210,0.237,0.567,0.493,0.595,0.548,0.141,-0.714,-0.043
185,0.040,-0.502,-0.541,0.231,0.290,-0.521,0.207,0.234,0.563,0.486,0.593,0.548,0.142,-0.712,-0.041
186,0.043,-0.496,-0.538,0.226,0.291,-0.517,0.207,0.233,0.565,0.485,0.591,0.548,0.142,-0.716,-0.043
187,0.055,-0.494,-0.549,0.219,0.302,-0.522,0.204,0.233,0.564,0.486,0.593,0.550,0.146,-0.717,-0.041
188,0.045,-0.495,-0.541,0.225,0.293,-0.518,0.208,0.232,0.563,0.485,0.593,0.551,0.148,-0.702,-0.041
189,0.039,-0.498,-0.537,0.229,0.288,-0.518,0.206,0.233,0.565,0.486,0.596,0.553,0.151,-0.709,-0.036
190,0.042,-0.502,-0.543,0.230,0.292,-0.522,0.205,0.233,0.564,0.484,0.594,0.551,0.145,-0.712,-0.036
191,0.045,-0.509,-0.553,0.232,0.299,-0.531,0.208,0.230,0.561,0.483,0.590,0.548,0.141,-0.716,-0.037
192,0.042,-0.514,-0.555,0.235,0.299,-0.534,0.208,0.231,0.562,0.483,0.592,0.549,0.143,-0.716,-0.035
193,0.042,-0.513,-0.554,0.235,0.298,-0.533,0.203,0.231,0.562,0.481,0.592,0.549,0.142,-0.715,-0.035
194,0.050,-0.508,-0.557,0.229,0.303,-0.532,0.201,0.233,0.561,0.484,0.593,0.549,0.145,-0.718,-0.036
195,0.048,-0.505,-0.552,0.228,0.300,-0.529,0.211,0.234,0.563,0.485,0.594,0.551,0.144,-0.710,-0.037
196,0.045,-0.517,-0.561,0.235,0.303,-0.539,0.209,0.235,0.564,0.485,0.596,0.553,0.143,-0.719,-0.036
197,0.037,-0.524,-0.560,0.243,0.299,-0.542,0.208,0.232,0.561,0.482,0.595,0.552,0.142,-0.722,-0.036
198,0.038,-0.520,-0.558,0.240,0.299,-0.539,0.203,0.232,0.562,0.483,0.593,0.552,0.143,-0.720,-0.035
199,0.037,-0.519,-0.556,0.240,0.297,-0.538,0.197,0.232,0.562,0.483,0.596,0.552,0.143,-0.721,-0.035
200,0.039,-0.511,-0.549,0.235,0.294,-0.530,0.203,0.232,0.561,0.482,0.595,0.552,0.141,-0.720,-0.036
201,0.057,-0.496,-0.552,0.219,0.304,-0.524,0.205,0.233,0.560,0.483,0.594,0.553,0.147,-0.720,-0.037
202,0.055,-0.491,-0.546,0.217,0.300,-0.519,0.203,0.230,0.553,0.479,0.593,0.550,0.146,-0.713,-0.038
203,0.057,-0.489,-0.546,0.215,0.301,-0.518,0.199,0.228,0.552,0.478,0.591,0.546,0.140,-0.707,-0.042
204,0.059,-0.494,-0.553,0.217,0.306,-0.524,0.202,0.230,0.560,0.480,0.592,0.546,0.138,-0.707,-0.044
205,0.038,-0.502,-0.540,0.232,0.289,-0.521,0.202,0.228,0.562,0.483,0.590,0.544,0.135,-0.717,-0.043
206,0.037,-0.495,-0.531,0.229,0.284,-0.513,0.198,0.224,0.553,0.477,0.587,0.543,0.136,-0.713,-0.041
207,0.047,-0.490,-0.537,0.221,0.292,-0.514,0.205,0.229,0.553,0.476,0.588,0.544,0.139,-0.707,-0.040
208,0.051,-0.492,-0.543,0.220,0.297,-0.517,0.201,0.224,0.552,0.477,0.587,0.543,0.138,-0.717,-0.041
209,0.056,-0.493,-0.549,0.218,0.302,-0.521,0.198,0.216,0.549,0.473,0.584,0.540,0.134,-0.718,-0.042
210,0.054,-0.498,-0.551,0.221,0.303,-0.525,0.198,0.226,0.556,0.478,0.589,0.544,0.136,-0.708,-0.042
211,0.048,-0.503,-0.550,0.227,0.299,-0.527,0.202,0.232,0.559,0.483,0.592,0.548,0.139,-0.710,-0.040
212,0.035,-0.506,-0.540,0.235,0.287,-0.523,0.211,0.232,0.558,0.485,0.592,0.547,0.137,-0.720,-0.038
213,0.029,-0.505,-0.534,0.237,0.282,-0.520,0.213,0.231,0.559,0.485,0.593,0.546,0.135,-0.719,-0.037
214,0.034,-0.503,-0.536,0.234,0.285,-0.520,0.207,0.229,0.560,0.485,0.593,0.546,0.138,-0.716,-0.036
215,0.043,-0.500,-0.543,0.228,0.293,-0.522,0.206,0.230,0.561,0.486,0.595,0.547,0.142,-0.718,-0.037
216,0.046,-0.509,-0.555,0.231,0.301,-0.532,0.207,0.230,0.563,0.489,0.596,0.550,0.144,-0.728,-0.035
217,0.043,-0.514,-0.556,0.234,0.300,-0.535,0.209,0.233,0.563,0.490,0.596,0.551,0.142,-0.725,-0.034
218,0.043,-0.511,-0.554,0.234,0.299,-0.532,0.210,0.231,0.561,0.488,0.595,0.550,0.142,-0.719,-0.036
219,0.043,-0.511,-0.553,0.234,0.298,-0.532,0.209,0.231,0.560,0.488,0.596,0.550,0.144,-0.717,-0.037
220,0.047,-0.505,-0.552,0.229,0.299,-0.528,0.209,0.233,0.560,0.487,0.596,0.551,0.147,-0.711,-0.036
221,0.049,-0.499,-0.547,0.225,0.298,-0.523,0.206,0.229,0.560,0.486,0.597,0.552,0.149,-0.712,-0.037
222,0.041,-0.496,-0.537,0.227,0.289,-0.517,0.208,0.232,0.561,0.489,0.599,0.555,0.149,-0.712,-0.037
223,0.042,-0.495,-0.536,0.226,0.289,-0.515,0.204,0.228,0.558,0.487,0.596,0.553,0.149,-0.711,-0.036
224,0.043,-0.501,-0.543,0.229,0.293,-0.522,0.200,0.221,0.556,0.485,0.595,0.550,0.147,-0.714,-0.036
225,0.043,-0.502,-0.544,0.229,0.293,-0.523,0.208,0.228,0.554,0.483,0.595,0.550,0.143,-0.712,-0.041
226,0.048,-0.489,-0.537,0.220,0.293,-0.513,0.209,0.228,0.557,0.484,0.594,0.548,0.144,-0.701,-0.045
227,0.049,-0.492,-0.540,0.221,0.294,-0.516,0.205,0.225,0.560,0.485,0.593,0.548,0.145,-0.698,-0.042
228,0.049,-0.497,-0.545,0.224,0.297,-0.521,0.204,0.224,0.553,0.481,0.590,0.546,0.144,-0.709,-0.040
229,0.041,-0.495,-0.536,0.227,0.289,-0.516,0.208,0.226,0.555,0.482,0.590,0.547,0.142,-0.712,-0.041
230,0.034,-0.503,-0.536,0.234,0.285,-0.520,0.211,0.231,0.563,0.487,0.594,0.549,0.144,-0.715,-0.040
231,0.035,-0.510,-0.544,0.237,0.290,-0.527,0.211,0.230,0.561,0.486,0.592,0.547,0.144,-0.718,-0.038
232,0.043,-0.514,-0.555,0.235,0.299,-0.535,0.212,0.229,0.560,0.484,0.590,0.545,0.143,-0.718,-0.038
233,0.053,-0.507,-0.560,0.226,0.307,-0.533,0.211,0.228,0.557,0.482,0.591,0.544,0.144,-0.717,-0.038
234,0.050,-0.501,-0.550,0.225,0.300,-0.525,0.210,0.227,0.556,0.482,0.592,0.544,0.142,-0.711,-0.039
235,0.041,-0.503,-0.544,0.231,0.293,-0.523,0.212,0.231,0.558,0.486,0.594,0.545,0.140,-0.717,-0.041
236,0.046,-0.507,-0.553,0.230,0.300,-0.530,0.213,0.236,0.565,0.491,0.596,0.546,0.140,-0.718,-0.041
237,0.053,-0.509,-0.561,0.227,0.307,-0.535,0.210,0.235,0.565,0.491,0.597,0.547,0.140,-0.712,-0.041
238,0.051,-0.509,-0.559,0.229,0.305,-0.534,0.218,0.233,0.562,0.491,0.596,0.547,0.137,-0.706,-0.043
239,0.046,-0.507,-0.553,0.230,0.299,-0.530,0.221,0.239,0.567,0.491,0.596,0.546,0.137,-0.705,-0.045
240,0.050,-0.497,-0.546,0.224,0.298,-0.522,0.216,0.243,0.571,0.494,0.597,0.548,0.139,-0.704,-0.046
241,0.054,-0.489,-0.543,0.216,0.299,-0.516,0.215,0.240,0.573,0.497,0.597,0.547,0.139,-0.706,-0.047
242,0.045,-0.489,-0.534,0.221,0.290,-0.511,0.216,0.237,0.569,0.492,0.594,0.547,0.137,-0.705,-0.048
243,0.044,-0.487,-0.530,0.221,0.287,-0.509,0.225,0.244,0.571,0.496,0.597,0.550,0.135,-0.699,-0.049
244,0.044,-0.485,-0.529,0.220,0.286,-0.507,0.228,0.249,0.575,0.499,0.599,0.550,0.133,-0.702,-0.053
245,0.046,-0.483,-0.528,0.217,0.287,-0.505,0.231,0.252,0.577,0.501,0.600,0.553,0.135,-0.699,-0.056
246,0.048,-0.467,-0.514,0.208,0.281,-0.490,0.236,0.256,0.579,0.503,0.602,0.555,0.139,-0.685,-0.059
247,0.049,-0.465,-0.514,0.207,0.281,-0.489,0.234,0.254,0.576,0.500,0.601,0.554,0.136,-0.680,-0.058
248,0.059,-0.469,-0.527,0.204,0.293,-0.498,0.234,0.255,0.579,0.500,0.604,0.556,0.137,-0.683,-0.056
249,0.053,-0.463,-0.516,0.204,0.285,-0.489,0.233,0.254,0.580,0.499,0.604,0.556,0.137,-0.681,-0.057
250,0.045,-0.468,-0.513,0.210,0.280,-0.490,0.234,0.255,0.582,0.503,0.606,0.557,0.136,-0.678,-0.058
251,0.035,-0.475,-0.510,0.219,0.273,-0.492,0.242,0.259,0.586,0.507,0.609,0.560,0.136,-0.678,-0.059
252,0.039,-0.474,-0.512,0.216,0.276,-0.493,0.246,0.263,0.590,0.511,0.611,0.562,0.136,-0.679,-0.060
253,0.050,-0.470,-0.519,0.209,0.285,-0.495,0.245,0.264,0.589,0.512,0.612,0.563,0.139,-0.676,-0.062
254,0.054,-0.465,-0.519,0.204,0.287,-0.492,0.242,0.260,0.588,0.511,0.611,0.563,0.138,-0.673,-0.065
255,0.056,-0.462,-0.517,0.202,0.286,-0.489,0.249,0.266,0.592,0.516,0.616,0.569,0.141,-0.672,-0.066
256,0.057,-0.466,-0.521,0.203,0.289,-0.493,0.260,0.273,0.598,0.522,0.621,0.573,0.144,-0.672,-0.067
257,0.061,-0.465,-0.525,0.201,0.293,-0.495,0.261,0.278,0.599,0.525,0.621,0.574,0.143,-0.672,-0.070
258,0.054,-0.465,-0.519,0.204,0.287,-0.492,0.259,0.276,0.597,0.521,0.621,0.573,0.145,-0.671,-0.067
259,0.051,-0.464,-0.515,0.205,0.283,-0.489,0.253,0.274,0.598,0.520,0.622,0.573,0.148,-0.664,-0.065
260,0.059,-0.453,-0.511,0.196,0.286,-0.482,0.249,0.274,0.596,0.519,0.624,0.574,0.148,-0.661,-0.068
261,0.060,-0.445,-0.504,0.192,0.282,-0.474,0.254,0.276,0.598,0.520,0.624,0.573,0.147,-0.655,-0.071
262,0.054,-0.442,-0.496,0.193,0.275,-0.469,0.255,0.276,0.596,0.522,0.621,0.572,0.147,-0.653,-0.070
263,0.058,-0.441,-0.497,0.191,0.278,-0.469,0.253,0.272,0.596,0.521,0.619,0.573,0.149,-0.661,-0.068
264,0.055,-0.440,-0.494,0.192,0.275,-0.468,0.248,0.273,0.598,0.520,0.619,0.571,0.149,-0.661,-0.067
265,0.059,-0.441,-0.498,0.190,0.279,-0.469,0.247,0.273,0.594,0.516,0.614,0.566,0.147,-0.655,-0.067
266,0.067,-0.428,-0.495,0.180,0.281,-0.462,0.246,0.266,0.590,0.515,0.612,0.565,0.149,-0.649,-0.069
267,0.067,-0.424,-0.490,0.178,0.279,-0.457,0.247,0.267,0.591,0.515,0.613,0.565,0.147,-0.643,-0.067
268,0.067,-0.431,-0.497,0.181,0.282,-0.465,0.252,0.270,0.593,0.514,0.612,0.564,0.145,-0.640,-0.064
269,0.066,-0.430,-0.496,0.181,0.281,-0.464,0.250,0.272,0.592,0.516,0.612,0.564,0.146,-0.647,-0.064
270,0.067,-0.437,-0.503,0.184,0.285,-0.470,0.247,0.269,0.591,0.515,0.612,0.562,0.145,-0.657,-0.062
271,0.070,-0.439,-0.507,0.184,0.289,-0.473,0.253,0.273,0.594,0.517,0.615,0.564,0.144,-0.653,-0.064
272,0.073,-0.433,-0.505,0.179,0.289,-0.469,0.255,0.281,0.603,0.522,0.617,0.569,0.144,-0.643,-0.065
273,0.076,-0.428,-0.504,0.175,0.290,-0.466,0.259,0.282,0.605,0.524,0.620,0.572,0.145,-0.641,-0.065
274,0.070,-0.424,-0.494,0.176,0.282,-0.459,0.263,0.286,0.607,0.528,0.624,0.576,0.146,-0.642,-0.067
275,0.062,-0.425,-0.487,0.180,0.275,-0.456,0.264,0.288,0.612,0.532,0.627,0.579,0.146,-0.639,-0.066
276,0.064,-0.431,-0.495,0.183,0.280,-0.464,0.265,0.288,0.613,0.535,0.631,0.582,0.145,-0.632,-0.066
277,0.058,-0.435,-0.492,0.188,0.276,-0.464,0.267,0.287,0.614,0.539,0.635,0.586,0.145,-0.626,-0.067
278,0.056,-0.426,-0.482,0.185,0.269,-0.455,0.268,0.289,0.618,0.544,0.641,0.592,0.149,-0.625,-0.065
279,0.071,-0.419,-0.490,0.173,0.281,-0.455,0.266,0.288,0.617,0.545,0.642,0.594,0.152,-0.626,-0.066
280,0.085,-0.411,-0.496,0.163,0.291,-0.454,0.265,0.287,0.615,0.542,0.642,0.594,0.155,-0.622,-0.068
281,0.089,-0.399,-0.487,0.155,0.288,-0.444,0.260,0.285,0.614,0.542,0.642,0.594,0.160,-0.616,-0.065
282,0.096,-0.387,-0.482,0.145,0.289,-0.434,0.259,0.286,0.616,0.544,0.646,0.596,0.165,-0.611,-0.066
283,0.103,-0.382,-0.485,0.139,0.294,-0.433,0.257,0.287,0.619,0.548,0.651,0.601,0.169,-0.604,-0.065
284,0.102,-0.388,-0.488,0.142,0.295,-0.438,0.248,0.286,0.620,0.552,0.654,0.603,0.172,-0.609,-0.062
285,0.103,-0.385,-0.487,0.141,0.296,-0.436,0.249,0.288,0.622,0.553,0.655,0.606,0.174,-0.605,-0.063
286,0.104,-0.374,-0.478,0.135,0.291,-0.426,0.245,0.283,0.618,0.549,0.652,0.606,0.172,-0.592,-0.066
287,0.101,-0.370,-0.471,0.135,0.286,-0.420,0.236,0.281,0.618,0.548,0.654,0.606,0.173,-0.595,-0.066
288,0.107,-0.373,-0.480,0.133,0.294,-0.427,0.231,0.278,0.624,0.553,0.655,0.610,0.176,-0.595,-0.060
289,0.107,-0.375,-0.482,0.134,0.295,-0.428,0.225,0.274,0.617,0.547,0.654,0.608,0.174,-0.599,-0.059
290,0.096,-0.377,-0.472,0.141,0.284,-0.424,0.226,0.277,0.615,0.546,0.655,0.611,0.171,-0.599,-0.061
291,0.095,-0.388,-0.482,0.146,0.289,-0.435,0.216,0.270,0.612,0.543,0.653,0.609,0.169,-0.604,-0.057
292,0.098,-0.397,-0.494,0.149,0.296,-0.446,0.203,0.258,0.605,0.538,0.649,0.605,0.170,-0.618,-0.053
293,0.094,-0.401,-0.494,0.153,0.294,-0.447,0.203,0.254,0.601,0.534,0.645,0.602,0.167,-0.606,-0.053
294,0.096,-0.400,-0.495,0.151,0.296,-0.448,0.195,0.251,0.594,0.525,0.643,0.598,0.165,-0.602,-0.053
295,0.099,-0.401,-0.498,0.151,0.298,-0.450,0.197,0.248,0.593,0.529,0.642,0.600,0.169,-0.619,-0.054
296,0.100,-0.406,-0.505,0.153,0.302,-0.456,0.208,0.255,0.598,0.534,0.647,0.603,0.169,-0.629,-0.055
297,0.100,-0.410,-0.509,0.155,0.304,-0.460,0.206,0.255,0.597,0.531,0.646,0.603,0.168,-0.631,-0.053
298,0.101,-0.413,-0.513,0.156,0.307,-0.464,0.204,0.252,0.595,0.530,0.645,0.601,0.170,-0.632,-0.053
299,0.100,-0.418,-0.516,0.159,0.308,-0.467,0.199,0.249,0.596,0.529,0.644,0.599,0.172,-0.634,-0.053
300,0.098,-0.418,-0.514,0.160,0.306,-0.467,0.201,0.246,0.593,0.525,0.641,0.596,0.171,-0.634,-0.053
301,0.101,-0.408,-0.509,0.153,0.305,-0.459,0.204,0.250,0.595,0.525,0.642,0.595,0.172,-0.633,-0.054
302,0.100,-0.404,-0.503,0.152,0.302,-0.454,0.203,0.248,0.593,0.525,0.643,0.597,0.175,-0.627,-0.053
303,0.091,-0.409,-0.499,0.159,0.295,-0.454,0.207,0.249,0.592,0.525,0.644,0.597,0.174,-0.624,-0.054
304,0.091,-0.407,-0.498,0.158,0.295,-0.453,0.205,0.254,0.597,0.530,0.646,0.598,0.178,-0.629,-0.057
305,0.092,-0.403,-0.494,0.155,0.294,-0.449,0.208,0.257,0.601,0.534,0.648,0.599,0.178,-0.626,-0.061
306,0.093,-0.397,-0.489,0.152,0.291,-0.443,0.205,0.254,0.598,0.530,0.645,0.596,0.172,-0.622,-0.065
307,0.097,-0.395,-0.491,0.148,0.294,-0.443,0.197,0.242,0.591,0.522,0.640,0.593,0.175,-0.619,-0.059
308,0.097,-0.401,-0.497,0.151,0.297,-0.449,0.202,0.250,0.599,0.529,0.644,0.599,0.180,-0.625,-0.059
309,0.099,-0.403,-0.501,0.151,0.300,-0.452,0.205,0.264,0.609,0.537,0.648,0.602,0.182,-0.631,-0.065
310,0.099,-0.404,-0.501,0.152,0.300,-0.453,0.206,0.263,0.609,0.537,0.649,0.601,0.181,-0.621,-0.066
311,0.098,-0.407,-0.505,0.154,0.301,-0.457,0.213,0.262,0.610,0.538,0.651,0.603,0.180,-0.617,-0.065
312,0.092,-0.409,-0.501,0.159,0.297,-0.456,0.216,0.270,0.617,0.544,0.654,0.606,0.178,-0.622,-0.067
313,0.089,-0.409,-0.497,0.160,0.293,-0.453,0.214,0.270,0.612,0.545,0.654,0.606,0.177,-0.624,-0.066
314,0.095,-0.406,-0.499,0.155,0.297,-0.453,0.208,0.259,0.610,0.540,0.651,0.603,0.177,-0.628,-0.061
315,0.095,-0.411,-0.505,0.158,0.300,-0.458,0.198,0.252,0.609,0.535,0.646,0.598,0.176,-0.630,-0.056
316,0.087,-0.427,-0.515,0.170,0.301,-0.471,0.198,0.256,0.600,0.529,0.641,0.591,0.169,-0.632,-0.051
317,0.087,-0.434,-0.521,0.173,0.304,-0.478,0.201,0.254,0.596,0.525,0.637,0.587,0.164,-0.643,-0.050
318,0.082,-0.440,-0.521,0.178,0.302,-0.480,0.201,0.249,0.591,0.520,0.632,0.583,0.161,-0.653,-0.049
319,0.069,-0.452,-0.520,0.191,0.295,-0.486,0.201,0.244,0.584,0.513,0.625,0.577,0.155,-0.653,-0.049
320,0.063,-0.454,-0.516,0.195,0.290,-0.485,0.197,0.235,0.577,0.507,0.619,0.573,0.151,-0.657,-0.049
321,0.060,-0.447,-0.506,0.192,0.283,-0.476,0.203,0.237,0.577,0.505,0.619,0.571,0.148,-0.670,-0.050
322,0.064,-0.445,-0.508,0.190,0.286,-0.476,0.203,0.231,0.573,0.501,0.615,0.566,0.146,-0.667,-0.048
323,0.059,-0.453,-0.510,0.196,0.285,-0.481,0.198,0.228,0.570,0.499,0.615,0.566,0.148,-0.666,-0.045
324,0.054,-0.460,-0.513,0.202,0.284,-0.486,0.198,0.231,0.571,0.500,0.614,0.566,0.146,-0.676,-0.045
325,0.052,-0.461,-0.512,0.203,0.282,-0.486,0.194,0.227,0.568,0.495,0.609,0.561,0.145,-0.674,-0.045
326,0.061,-0.451,-0.511,0.194,0.286,-0.481,0.191,0.221,0.566,0.494,0.609,0.560,0.150,-0.671,-0.044
327,0.073,-0.445,-0.517,0.185,0.295,-0.481,0.185,0.218,0.563,0.493,0.610,0.559,0.154,-0.670,-0.046
328,0.059,-0.456,-0.514,0.197,0.287,-0.485,0.189,0.223,0.564,0.495,0.611,0.561,0.152,-0.677,-0.049
329,0.055,-0.467,-0.521,0.205,0.288,-0.494,0.192,0.225,0.565,0.496,0.609,0.559,0.151,-0.694,-0.045
330,0.058,-0.473,-0.531,0.207,0.295,-0.502,0.189,0.223,0.563,0.494,0.607,0.558,0.154,-0.702,-0.043
331,0.055,-0.483,-0.537,0.213,0.296,-0.510,0.193,0.227,0.567,0.497,0.609,0.560,0.157,-0.709,-0.043
332,0.051,-0.490,-0.541,0.218,0.296,-0.515,0.193,0.226,0.565,0.495,0.608,0.561,0.157,-0.711,-0.039
333,0.053,-0.492,-0.544,0.219,0.299,-0.518,0.191,0.220,0.558,0.489,0.605,0.559,0.158,-0.712,-0.037
334,0.052,-0.491,-0.543,0.218,0.298,-0.517,0.191,0.218,0.556,0.487,0.603,0.558,0.159,-0.715,-0.036
335,0.044,-0.492,-0.537,0.224,0.291,-0.515,0.190,0.216,0.558,0.486,0.605,0.561,0.159,-0.712,-0.035
336,0.045,-0.504,-0.548,0.229,0.297,-0.526,0.191,0.215,0.557,0.486,0.604,0.560,0.157,-0.716,-0.034
337,0.048,-0.511,-0.559,0.231,0.303,-0.535,0.193,0.215,0.552,0.482,0.601,0.555,0.154,-0.725,-0.034
338,0.050,-0.510,-0.560,0.230,0.305,-0.535,0.192,0.213,0.550,0.480,0.600,0.553,0.157,-0.725,-0.034
339,0.051,-0.510,-0.560,0.229,0.306,-0.535,0.189,0.213,0.550,0.480,0.598,0.551,0.158,-0.724,-0.033
340,0.057,-0.504,-0.560,0.223,0.308,-0.532,0.190,0.213,0.550,0.477,0.597,0.550,0.157,-0.723,-0.030
341,0.059,-0.501,-0.559,0.220,0.309,-0.530,0.184,0.206,0.545,0.473,0.593,0.547,0.157,-0.719,-0.032
342,0.051,-0.501,-0.552,0.224,0.302,-0.527,0.180,0.204,0.539,0.473,0.590,0.545,0.155,-0.728,-0.031
343,0.052,-0.499,-0.551,0.223,0.302,-0.525,0.180,0.203,0.540,0.471,0.590,0.545,0.157,-0.721,-0.030
344,0.048,-0.505,-0.552,0.229,0.300,-0.528,0.181,0.204,0.545,0.474,0.590,0.543,0.151,-0.712,-0.033
345,0.034,-0.512,-0.545,0.238,0.290,-0.528,0.182,0.204,0.544,0.473,0.588,0.541,0.143,-0.718,-0.034
346,0.040,-0.501,-0.540,0.230,0.290,-0.521,0.182,0.203,0.540,0.466,0.584,0.538,0.148,-0.721,-0.032
347,0.059,-0.489,-0.547,0.214,0.303,-0.518,0.173,0.203,0.539,0.465,0.583,0.538,0.153,-0.718,-0.032
348,0.062,-0.491,-0.553,0.213,0.308,-0.522,0.173,0.202,0.539,0.464,0.582,0.537,0.147,-0.710,-0.035
349,0.046,-0.504,-0.550,0.228,0.298,-0.527,0.189,0.204,0.541,0.465,0.581,0.538,0.140,-0.721,-0.035
350,0.038,-0.509,-0.546,0.235,0.292,-0.528,0.190,0.206,0.542,0.465,0.583,0.537,0.136,-0.729,-0.036
351,0.038,-0.510,-0.547,0.235,0.293,-0.529,0.188,0.208,0.544,0.468,0.584,0.537,0.139,-0.733,-0.035
352,0.035,-0.517,-0.551,0.240,0.293,-0.534,0.185,0.208,0.544,0.467,0.582,0.535,0.140,-0.735,-0.033
353,0.037,-0.516,-0.552,0.239,0.295,-0.534,0.185,0.204,0.542,0.464,0.577,0.530,0.138,-0.727,-0.033
354,0.042,-0.509,-0.550,0.233,0.296,-0.530,0.184,0.206,0.541,0.465,0.576,0.530,0.138,-0.727,-0.032
355,0.037,-0.511,-0.547,0.236,0.292,-0.529,0.180,0.204,0.540,0.462,0.576,0.530,0.137,-0.721,-0.034
356,0.033,-0.518,-0.550,0.241,0.292,-0.534,0.186,0.207,0.542,0.465,0.580,0.533,0.137,-0.724,-0.032
357,0.035,-0.521,-0.556,0.242,0.296,-0.538,0.188,0.213,0.545,0.468,0.583,0.534,0.136,-0.737,-0.033
358,0.042,-0.523,-0.564,0.240,0.303,-0.543,0.182,0.207,0.543,0.466,0.581,0.532,0.136,-0.733,-0.034
359,0.051,-0.518,-0.568,0.233,0.309,-0.543,0.180,0.204,0.540,0.466,0.580,0.532,0.139,-0.730,-0.033
360,0.049,-0.515,-0.564,0.233,0.306,-0.539,0.185,0.208,0.544,0.469,0.581,0.533,0.140,-0.728,-0.035
361,0.042,-0.513,-0.554,0.234,0.298,-0.533,0.188,0.207,0.545,0.469,0.582,0.533,0.141,-0.728,-0.035
362,0.041,-0.506,-0.546,0.232,0.294,-0.526,0.185,0.208,0.543,0.469,0.581,0.533,0.142,-0.731,-0.035
363,0.036,-0.507,-0.543,0.235,0.290,-0.525,0.189,0.210,0.546,0.470,0.584,0.537,0.142,-0.730,-0.035
364,0.038,-0.509,-0.547,0.235,0.293,-0.528,0.188,0.208,0.545,0.470,0.583,0.536,0.142,-0.728,-0.035
365,0.041,-0.508,-0.548,0.233,0.295,-0.528,0.189,0.210,0.546,0.470,0.584,0.536,0.141,-0.723,-0.036
366,0.045,-0.499,-0.544,0.226,0.295,-0.521,0.186,0.205,0.547,0.472,0.584,0.535,0.142,-0.713,-0.040
367,0.049,-0.493,-0.541,0.222,0.295,-0.517,0.183,0.202,0.541,0.468,0.581,0.533,0.142,-0.712,-0.040
368,0.036,-0.494,-0.530,0.229,0.283,-0.512,0.186,0.208,0.548,0.471,0.587,0.538,0.142,-0.715,-0.039
369,0.029,-0.501,-0.529,0.235,0.279,-0.515,0.188,0.211,0.555,0.478,0.589,0.539,0.141,-0.719,-0.039
370,0.028,-0.508,-0.535,0.240,0.281,-0.522,0.192,0.216,0.550,0.472,0.589,0.538,0.137,-0.719,-0.040
371,0.033,-0.512,-0.544,0.239,0.288,-0.528,0.188,0.212,0.547,0.469,0.588,0.537,0.140,-0.725,-0.038
372,0.030,-0.520,-0.550,0.244,0.290,-0.535,0.184,0.206,0.545,0.469,0.584,0.534,0.138,-0.740,-0.037
373,0.036,-0.517,-0.553,0.239,0.295,-0.535,0.188,0.209,0.544,0.469,0.585,0.533,0.138,-0.737,-0.041
374,0.037,-0.513,-0.550,0.237,0.294,-0.531,0.182,0.208,0.545,0.470,0.584,0.532,0.142,-0.732,-0.038
375,0.033,-0.512,-0.545,0.238,0.289,-0.528,0.184,0.209,0.547,0.470,0.586,0.535,0.141,-0.727,-0.039
376,0.040,-0.517,-0.555,0.238,0.297,-0.536,0.190,0.211,0.548,0.474,0.587,0.537,0.141,-0.732,-0.041
377,0.030,-0.521,-0.551,0.244,0.291,-0.536,0.194,0.213,0.552,0.479,0.590,0.540,0.139,-0.735,-0.039
378,0.029,-0.518,-0.547,0.243,0.288,-0.532,0.192,0.212,0.551,0.476,0.588,0.537,0.137,-0.732,-0.040
379,0.033,-0.518,-0.550,0.241,0.292,-0.534,0.185,0.206,0.545,0.471,0.583,0.532,0.136,-0.733,-0.038
380,0.035,-0.511,-0.546,0.237,0.291,-0.529,0.189,0.207,0.548,0.472,0.586,0.533,0.134,-0.722,-0.041
381,0.043,-0.505,-0.547,0.231,0.295,-0.526,0.185,0.203,0.544,0.469,0.582,0.531,0.137,-0.727,-0.041
382,0.044,-0.497,-0.541,0.226,0.293,-0.519,0.186,0.205,0.545,0.469,0.581,0.533,0.138,-0.728,-0.041
383,0.038,-0.497,-0.535,0.229,0.287,-0.516,0.192,0.209,0.549,0.470,0.580,0.534,0.135,-0.718,-0.042
384,0.028,-0.504,-0.531,0.237,0.280,-0.517,0.197,0.212,0.551,0.470,0.580,0.531,0.131,-0.718,-0.043
385,0.025,-0.498,-0.523,0.236,0.274,-0.510,0.217,0.232,0.565,0.477,0.584,0.532,0.127,-0.711,-0.052
386,0.025,-0.493,-0.517,0.234,0.272,-0.505,0.214,0.239,0.567,0.478,0.576,0.527,0.126,-0.709,-0.058
387,0.024,-0.492,-0.515,0.234,0.270,-0.504,0.222,0.251,0.573,0.478,0.569,0.521,0.123,-0.705,-0.063
388,0.021,-0.488,-0.507,0.233,0.265,-0.498,0.248,0.280,0.594,0.488,0.570,0.520,0.119,-0.701,-0.073
389,0.011,-0.493,-0.504,0.240,0.258,-0.498,0.261,0.307,0.622,0.505,0.571,0.518,0.117,-0.711,-0.085
390,0.015,-0.495,-0.509,0.239,0.262,-0.502,0.280,0.349,0.651,0.517,0.568,0.512,0.110,-0.710,-0.099
391,0.025,-0.497,-0.522,0.235,0.274,-0.510,0.298,0.393,0.679,0.530,0.558,0.500,0.103,-0.715,-0.116
392,0.027,-0.513,-0.540,0.242,0.283,-0.527,0.317,0.433,0.716,0.546,0.553,0.489,0.102,-0.734,-0.129
393,0.023,-0.515,-0.538,0.245,0.281,-0.526,0.336,0.476,0.749,0.563,0.546,0.478,0.096,-0.730,-0.145
394,0.028,-0.511,-0.538,0.241,0.283,-0.524,0.358,0.514,0.774,0.570,0.533,0.461,0.079,-0.728,-0.164
395,0.034,-0.524,-0.557,0.244,0.295,-0.541,0.385,0.555,0.799,0.573,0.513,0.437,0.059,-0.751,-0.176
396,0.036,-0.554,-0.591,0.258,0.314,-0.573,0.412,0.601,0.834,0.587,0.497,0.413,0.048,-0.776,-0.186
397,0.042,-0.585,-0.625,0.271,0.334,-0.605,0.433,0.638,0.861,0.594,0.485,0.395,0.040,-0.802,-0.193
398,0.049,-0.605,-0.653,0.277,0.351,-0.629,0.450,0.683,0.891,0.609,0.476,0.378,0.035,-0.830,-0.205
399,0.062,-0.618,-0.680,0.278,0.371,-0.649,0.468,0.725,0.930,0.635,0.479,0.368,0.038,-0.849,-0.220
400,0.074,-0.634,-0.709,0.279,0.392,-0.671,0.480,0.758,0.962,0.658,0.481,0.358,0.043,-0.874,-0.231
401,0.094,-0.651,-0.746,0.278,0.420,-0.699,0.488,0.796,0.993,0.678,0.484,0.350,0.050,-0.897,-0.237
402,0.108,-0.673,-0.781,0.281,0.445,-0.727,0.503,0.829,1.019,0.690,0.486,0.342,0.054,-0.923,-0.241
403,0.123,-0.699,-0.822,0.286,0.472,-0.759,0.520,0.864,1.048,0.710,0.494,0.336,0.063,-0.949,-0.249
404,0.141,-0.714,-0.854,0.285,0.498,-0.784,0.536,0.909,1.097,0.752,0.528,0.349,0.086,-0.965,-0.261
405,0.161,-0.728,-0.887,0.283,0.524,-0.807,0.551,0.963,1.153,0.804,0.573,0.372,0.119,-0.985,-0.276
406,0.188,-0.730,-0.918,0.271,0.553,-0.824,0.556,1.014,1.206,0.852,0.614,0.392,0.152,-1.000,-0.288
407,0.214,-0.743,-0.957,0.264,0.586,-0.850,0.557,1.060,1.252,0.902,0.658,0.414,0.190,-1.018,-0.298
408,0.243,-0.747,-0.990,0.251,0.617,-0.869,0.555,1.079,1.280,0.960,0.721,0.450,0.233,-1.026,-0.306
409,0.284,-0.739,-1.023,0.226,0.654,-0.880,0.530,1.067,1.300,1.023,0.807,0.507,0.294,-1.024,-0.309
410,0.331,-0.727,-1.058,0.198,0.695,-0.892,0.496,1.044,1.317,1.097,0.910,0.580,0.369,-1.020,-0.313
411,0.369,-0.705,-1.073,0.167,0.722,-0.889,0.458,1.002,1.339,1.187,1.020,0.652,0.443,-1.009,-0.319
412,0.423,-0.692,-1.115,0.134,0.770,-0.903,0.417,0.955,1.349,1.269,1.131,0.722,0.522,-1.005,-0.322
413,0.466,-0.663,-1.129,0.098,0.798,-0.896,0.403,0.923,1.347,1.346,1.243,0.795,0.593,-0.979,-0.340
414,0.492,-0.624,-1.115,0.066,0.804,-0.870,0.382,0.874,1.335,1.429,1.376,0.888,0.673,-0.940,-0.353
415,0.521,-0.577,-1.097,0.028,0.809,-0.837,0.368,0.834,1.332,1.516,1.504,0.977,0.745,-0.903,-0.374
416,0.542,-0.536,-1.078,-0.004,0.810,-0.807,0.370,0.813,1.347,1.605,1.618,1.052,0.800,-0.872,-0.400
417,0.551,-0.498,-1.050,-0.027,0.801,-0.774,0.351,0.738,1.315,1.677,1.733,1.133,0.862,-0.823,-0.410
418,0.568,-0.432,-1.000,-0.068,0.784,-0.717,0.331,0.653,1.269,1.742,1.851,1.222,0.923,-0.754,-0.426
419,0.581,-0.366,-0.947,-0.107,0.764,-0.656,0.296,0.520,1.175,1.778,1.958,1.310,0.982,-0.694,-0.429
420,0.577,-0.319,-0.896,-0.130,0.738,-0.608,0.260,0.361,1.053,1.788,2.042,1.378,1.024,-0.642,-0.418
421,0.581,-0.262,-0.843,-0.160,0.712,-0.552,0.225,0.214,0.946,1.794,2.115,1.444,1.062,-0.581,-0.409
422,0.566,-0.226,-0.791,-0.170,0.679,-0.509,0.223,0.144,0.903,1.825,2.173,1.493,1.089,-0.536,-0.410
423,0.520,-0.243,-0.763,-0.139,0.642,-0.503,0.257,0.137,0.912,1.876,2.204,1.508,1.087,-0.532,-0.415
424,0.472,-0.257,-0.730,-0.108,0.602,-0.493,0.274,0.068,0.877,1.884,2.209,1.518,1.076,-0.527,-0.406
425,0.435,-0.245,-0.680,-0.095,0.558,-0.463,0.285,0.030,0.840,1.867,2.196,1.526,1.062,-0.501,-0.400
426,0.399,-0.224,-0.623,-0.087,0.511,-0.423,0.304,0.021,0.816,1.851,2.162,1.520,1.039,-0.474,-0.399
427,0.361,-0.245,-0.606,-0.058,0.483,-0.425,0.347,0.043,0.852,1.876,2.111,1.476,1.002,-0.485,-0.411
428,0.327,-0.288,-0.615,-0.019,0.470,-0.452,0.380,0.047,0.846,1.845,2.016,1.408,0.940,-0.512,-0.406
429,0.284,-0.318,-0.602,0.017,0.443,-0.460,0.380,-0.011,0.767,1.749,1.903,1.346,0.875,-0.532,-0.370
430,0.231,-0.364,-0.595,0.067,0.413,-0.479,0.386,-0.080,0.666,1.619,1.760,1.270,0.794,-0.559,-0.326
431,0.190,-0.410,-0.600,0.110,0.395,-0.505,0.386,-0.159,0.532,1.434,1.582,1.174,0.699,-0.591,-0.271
432,0.144,-0.445,-0.588,0.150,0.366,-0.516,0.372,-0.205,0.431,1.276,1.407,1.073,0.601,-0.617,-0.223
433,0.086,-0.508,-0.595,0.210,0.341,-0.551,0.367,-0.246,0.348,1.107,1.218,0.947,0.486,-0.662,-0.179
434,0.048,-0.570,-0.617,0.261,0.332,-0.593,0.358,-0.277,0.284,0.949,1.056,0.839,0.392,-0.714,-0.138
435,0.013,-0.599,-0.611,0.292,0.312,-0.605,0.362,-0.293,0.198,0.753,0.901,0.749,0.296,-0.744,-0.103
436,-0.032,-0.631,-0.599,0.331,0.284,-0.615,0.381,-0.346,0.052,0.488,0.718,0.644,0.179,-0.769,-0.061
437,-0.075,-0.640,-0.564,0.357,0.244,-0.602,0.374,-0.398,-0.057,0.296,0.575,0.569,0.090,-0.767,-0.025
438,-0.125,-0.639,-0.514,0.382,0.195,-0.577,0.368,-0.411,-0.093,0.189,0.474,0.513,0.024,-0.752,-0.003
439,-0.150,-0.633,-0.482,0.391,0.167,-0.558,0.360,-0.433,-0.120,0.120,0.400,0.464,-0.029,-0.741,0.009
440,-0.159,-0.621,-0.462,0.389,0.151,-0.541,0.347,-0.450,-0.132,0.077,0.346,0.421,-0.067,-0.736,0.015
441,-0.182,-0.616,-0.433,0.398,0.126,-0.524,0.333,-0.452,-0.122,0.064,0.329,0.401,-0.089,-0.722,0.019
442,-0.194,-0.610,-0.415,0.401,0.111,-0.512,0.306,-0.461,-0.109,0.075,0.342,0.400,-0.093,-0.715,0.025
443,-0.201,-0.618,-0.416,0.408,0.107,-0.516,0.296,-0.450,-0.089,0.081,0.347,0.393,-0.100,-0.729,0.033
444,-0.197,-0.622,-0.425,0.409,0.114,-0.523,0.283,-0.433,-0.060,0.095,0.354,0.389,-0.104,-0.727,0.037
445,-0.188,-0.628,-0.440,0.407,0.126,-0.534,0.252,-0.424,-0.037,0.106,0.359,0.381,-0.102,-0.731,0.050
446,-0.177,-0.615,-0.437,0.395,0.130,-0.525,0.226,-0.415,-0.017,0.119,0.369,0.381,-0.095,-0.736,0.054
447,-0.177,-0.604,-0.427,0.390,0.126,-0.515,0.216,-0.386,0.023,0.145,0.382,0.385,-0.092,-0.725,0.046
448,-0.182,-0.607,-0.424,0.394,0.121,-0.515,0.224,-0.348,0.066,0.170,0.395,0.388,-0.090,-0.726,0.037
449,-0.171,-0.597,-0.426,0.384,0.128,-0.511,0.229,-0.307,0.115,0.204,0.413,0.401,-0.076,-0.729,0.025
450,-0.160,-0.608,-0.447,0.383,0.144,-0.527,0.236,-0.255,0.167,0.240,0.428,0.406,-0.067,-0.736,0.011
451,-0.143,-0.616,-0.471,0.379,0.165,-0.543,0.256,-0.204,0.205,0.266,0.437,0.406,-0.060,-0.754,-0.005
452,-0.130,-0.624,-0.493,0.376,0.182,-0.558,0.254,-0.166,0.238,0.285,0.446,0.409,-0.046,-0.773,-0.013
453,-0.119,-0.633,-0.514,0.375,0.198,-0.574,0.249,-0.132,0.270,0.304,0.453,0.408,-0.033,-0.787,-0.015
454,-0.107,-0.638,-0.530,0.371,0.212,-0.584,0.264,-0.088,0.306,0.327,0.458,0.412,-0.019,-0.795,-0.026
455,-0.100,-0.648,-0.548,0.373,0.225,-0.599,0.259,-0.059,0.331,0.342,0.464,0.416,-0.008,-0.813,-0.032
456,-0.093,-0.664,-0.571,0.378,0.239,-0.617,0.249,-0.038,0.350,0.355,0.469,0.419,0.002,-0.833,-0.028
457,-0.087,-0.668,-0.581,0.377,0.247,-0.625,0.251,-0.011,0.370,0.365,0.475,0.423,0.008,-0.836,-0.029
458,-0.080,-0.665,-0.585,0.371,0.253,-0.625,0.248,0.011,0.386,0.373,0.477,0.425,0.017,-0.834,-0.032
459,-0.068,-0.661,-0.593,0.363,0.263,-0.627,0.235,0.029,0.404,0.385,0.483,0.432,0.029,-0.833,-0.029
460,-0.056,-0.646,-0.590,0.350,0.268,-0.618,0.220,0.042,0.413,0.391,0.490,0.441,0.040,-0.824,-0.029
461,-0.042,-0.627,-0.585,0.334,0.272,-0.606,0.217,0.070,0.436,0.406,0.499,0.450,0.053,-0.802,-0.036
462,-0.021,-0.604,-0.582,0.312,0.281,-0.593,0.213,0.110,0.472,0.432,0.519,0.467,0.072,-0.790,-0.043
463,-0.007,-0.596,-0.589,0.301,0.291,-0.593,0.202,0.135,0.493,0.449,0.530,0.476,0.090,-0.789,-0.043
464,0.000,-0.593,-0.593,0.295,0.296,-0.593,0.202,0.158,0.517,0.464,0.541,0.483,0.102,-0.785,-0.045
465,0.013,-0.580,-0.591,0.282,0.302,-0.585,0.208,0.183,0.538,0.480,0.550,0.492,0.112,-0.781,-0.048
466,0.023,-0.561,-0.584,0.269,0.303,-0.573,0.209,0.200,0.555,0.492,0.556,0.498,0.120,-0.772,-0.052
467,0.029,-0.541,-0.570,0.256,0.299,-0.555,0.214,0.213,0.572,0.504,0.566,0.508,0.130,-0.759,-0.058
468,0.045,-0.526,-0.571,0.240,0.308,-0.548,0.210,0.234,0.589,0.516,0.578,0.519,0.141,-0.747,-0.060
469,0.047,-0.520,-0.567,0.236,0.307,-0.543,0.210,0.256,0.615,0.534,0.591,0.528,0.150,-0.739,-0.066
470,0.041,-0.522,-0.563,0.240,0.302,-0.543,0.222,0.271,0.629,0.548,0.601,0.535,0.154,-0.738,-0.070
471,0.049,-0.522,-0.571,0.236,0.310,-0.546,0.228,0.281,0.639,0.556,0.610,0.544,0.160,-0.743,-0.068
472,0.049,-0.519,-0.568,0.234,0.308,-0.543,0.226,0.282,0.644,0.560,0.613,0.546,0.163,-0.736,-0.069
473,0.050,-0.514,-0.565,0.232,0.307,-0.539,0.225,0.284,0.647,0.561,0.614,0.547,0.165,-0.726,-0.069
474,0.059,-0.506,-0.565,0.223,0.312,-0.535,0.227,0.290,0.649,0.561,0.615,0.551,0.168,-0.729,-0.070
475,0.064,-0.496,-0.559,0.215,0.312,-0.527,0.229,0.295,0.654,0.566,0.619,0.554,0.172,-0.722,-0.071
476,0.062,-0.504,-0.567,0.221,0.315,-0.535,0.231,0.298,0.658,0.567,0.620,0.559,0.173,-0.727,-0.069
477,0.058,-0.512,-0.570,0.227,0.314,-0.541,0.233,0.298,0.661,0.568,0.619,0.559,0.175,-0.727,-0.068
478,0.057,-0.507,-0.564,0.225,0.310,-0.535,0.234,0.303,0.663,0.569,0.620,0.563,0.182,-0.723,-0.066
479,0.057,-0.509,-0.565,0.226,0.310,-0.536,0.228,0.301,0.659,0.564,0.617,0.560,0.172,-0.730,-0.068
480,0.058,-0.501,-0.558,0.222,0.308,-0.530,0.226,0.296,0.660,0.563,0.615,0.558,0.164,-0.723,-0.071
481,0.063,-0.490,-0.553,0.213,0.308,-0.521,0.227,0.299,0.659,0.563,0.615,0.560,0.170,-0.715,-0.070
482,0.063,-0.486,-0.548,0.210,0.306,-0.517,0.229,0.303,0.658,0.563,0.614,0.560,0.170,-0.714,-0.071
483,0.062,-0.488,-0.550,0.212,0.306,-0.519,0.225,0.301,0.658,0.563,0.613,0.559,0.170,-0.718,-0.070
484,0.062,-0.492,-0.554,0.214,0.308,-0.523,0.222,0.300,0.662,0.567,0.616,0.561,0.170,-0.714,-0.070
485,0.058,-0.496,-0.554,0.218,0.306,-0.525,0.221,0.302,0.659,0.563,0.617,0.563,0.173,-0.709,-0.068
486,0.057,-0.491,-0.547,0.216,0.302,-0.519,0.221,0.303,0.663,0.564,0.617,0.561,0.179,-0.710,-0.068
487,0.060,-0.479,-0.538,0.209,0.299,-0.509,0.222,0.305,0.669,0.570,0.620,0.564,0.176,-0.699,-0.072
488,0.052,-0.487,-0.539,0.217,0.296,-0.513,0.221,0.306,0.665,0.565,0.619,0.564,0.173,-0.700,-0.072
489,0.063,-0.484,-0.546,0.210,0.305,-0.515,0.220,0.306,0.669,0.570,0.623,0.568,0.177,-0.706,-0.072
490,0.070,-0.484,-0.553,0.206,0.312,-0.518,0.220,0.310,0.673,0.575,0.629,0.571,0.179,-0.706,-0.071
491,0.060,-0.502,-0.562,0.221,0.311,-0.532,0.220,0.315,0.675,0.574,0.628,0.570,0.178,-0.708,-0.069
492,0.069,-0.503,-0.572,0.216,0.320,-0.537,0.215,0.313,0.673,0.574,0.628,0.568,0.180,-0.712,-0.069
493,0.060,-0.505,-0.565,0.222,0.312,-0.535,0.213,0.312,0.673,0.575,0.630,0.568,0.181,-0.720,-0.066
494,0.050,-0.503,-0.552,0.226,0.301,-0.527,0.216,0.317,0.679,0.578,0.632,0.573,0.183,-0.720,-0.065
495,0.060,-0.493,-0.553,0.216,0.307,-0.523,0.217,0.316,0.679,0.578,0.632,0.574,0.185,-0.716,-0.067
496,0.073,-0.497,-0.570,0.211,0.322,-0.534,0.214,0.313,0.676,0.577,0.631,0.572,0.187,-0.723,-0.068
497,0.077,-0.502,-0.579,0.212,0.328,-0.540,0.216,0.317,0.679,0.579,0.633,0.575,0.189,-0.719,-0.069
498,0.070,-0.502,-0.573,0.215,0.322,-0.537,0.216,0.314,0.679,0.578,0.637,0.575,0.189,-0.717,-0.067
499,0.068,-0.500,-0.568,0.216,0.318,-0.534,0.209,0.312,0.677,0.578,0.637,0.576,0.189,-0.724,-0.068
500,0.071,-0.494,-0.565,0.210,0.319,-0.529,0.212,0.316,0.681,0.581,0.637,0.578,0.191,-0.713,-0.068
501,0.079,-0.486,-0.564,0.203,0.321,-0.525,0.212,0.316,0.681,0.582,0.637,0.577,0.192,-0.703,-0.070
502,0.080,-0.482,-0.561,0.201,0.321,-0.521,0.209,0.315,0.680,0.581,0.636,0.576,0.192,-0.697,-0.071
503,0.074,-0.482,-0.556,0.203,0.316,-0.519,0.213,0.317,0.682,0.581,0.636,0.574,0.189,-0.703,-0.072
504,0.072,-0.487,-0.558,0.207,0.316,-0.523,0.215,0.318,0.683,0.582,0.635,0.574,0.190,-0.706,-0.072
505,0.076,-0.487,-0.563,0.205,0.320,-0.525,0.214,0.319,0.687,0.585,0.637,0.575,0.194,-0.700,-0.071
506,0.084,-0.474,-0.558,0.195,0.322,-0.516,0.214,0.321,0.690,0.587,0.637,0.574,0.193,-0.707,-0.073
507,0.082,-0.470,-0.551,0.194,0.317,-0.510,0.216,0.320,0.689,0.585,0.634,0.573,0.191,-0.704,-0.073
508,0.075,-0.476,-0.551,0.200,0.313,-0.513,0.214,0.322,0.688,0.583,0.632,0.573,0.192,-0.703,-0.072
509,0.075,-0.480,-0.554,0.202,0.315,-0.517,0.211,0.322,0.690,0.582,0.632,0.574,0.194,-0.710,-0.070
510,0.074,-0.481,-0.554,0.203,0.315,-0.518,0.216,0.323,0.692,0.583,0.633,0.574,0.192,-0.704,-0.070
511,0.075,-0.490,-0.566,0.207,0.321,-0.528,0.215,0.325,0.697,0.587,0.635,0.575,0.192,-0.711,-0.069
512,0.070,-0.500,-0.570,0.214,0.320,-0.535,0.214,0.330,0.698,0.590,0.635,0.575,0.194,-0.719,-0.067
513,0.071,-0.495,-0.566,0.211,0.319,-0.530,0.215,0.332,0.699,0.588,0.634,0.573,0.191,-0.717,-0.071
514,0.079,-0.490,-0.568,0.205,0.324,-0.529,0.211,0.328,0.701,0.586,0.637,0.576,0.194,-0.714,-0.070
515,0.075,-0.489,-0.565,0.206,0.320,-0.527,0.211,0.329,0.699,0.586,0.637,0.575,0.194,-0.711,-0.069
516,0.071,-0.497,-0.568,0.212,0.320,-0.533,0.211,0.331,0.700,0.586,0.638,0.575,0.192,-0.719,-0.069
517,0.079,-0.496,-0.576,0.208,0.328,-0.536,0.212,0.334,0.703,0.591,0.639,0.577,0.192,-0.719,-0.069
518,0.087,-0.497,-0.585,0.204,0.337,-0.541,0.204,0.333,0.702,0.591,0.637,0.575,0.194,-0.716,-0.069
519,0.087,-0.494,-0.581,0.203,0.335,-0.538,0.211,0.333,0.705,0.591,0.639,0.576,0.194,-0.714,-0.070
520,0.089,-0.484,-0.573,0.197,0.332,-0.528,0.216,0.335,0.708,0.594,0.639,0.576,0.192,-0.713,-0.072
521,0.086,-0.483,-0.569,0.198,0.328,-0.526,0.206,0.336,0.704,0.593,0.639,0.575,0.195,-0.715,-0.072
522,0.084,-0.476,-0.559,0.195,0.322,-0.517,0.213,0.337,0.707,0.595,0.641,0.577,0.196,-0.713,-0.075
523,0.084,-0.474,-0.557,0.195,0.321,-0.516,0.214,0.338,0.709,0.599,0.641,0.577,0.196,-0.701,-0.076
524,0.086,-0.479,-0.565,0.196,0.326,-0.522,0.207,0.337,0.709,0.598,0.641,0.576,0.198,-0.700,-0.073
525,0.090,-0.477,-0.567,0.193,0.329,-0.522,0.209,0.338,0.713,0.601,0.645,0.578,0.198,-0.708,-0.074
526,0.082,-0.473,-0.554,0.195,0.319,-0.513,0.214,0.342,0.714,0.605,0.647,0.580,0.200,-0.700,-0.077
527,0.081,-0.470,-0.551,0.194,0.317,-0.511,0.212,0.343,0.718,0.606,0.648,0.582,0.204,-0.701,-0.076
528,0.084,-0.471,-0.555,0.193,0.320,-0.513,0.212,0.346,0.720,0.611,0.650,0.584,0.201,-0.706,-0.080
529,0.087,-0.473,-0.559,0.193,0.324,-0.516,0.214,0.349,0.723,0.613,0.650,0.584,0.199,-0.708,-0.082
530,0.091,-0.476,-0.568,0.192,0.330,-0.522,0.210,0.348,0.724,0.613,0.650,0.585,0.203,-0.701,-0.080
531,0.091,-0.487,-0.578,0.198,0.335,-0.532,0.209,0.348,0.727,0.613,0.651,0.585,0.203,-0.709,-0.079
532,0.087,-0.495,-0.582,0.203,0.335,-0.538,0.210,0.351,0.730,0.617,0.653,0.585,0.203,-0.724,-0.076
533,0.077,-0.494,-0.571,0.208,0.324,-0.532,0.208,0.351,0.730,0.617,0.651,0.583,0.203,-0.708,-0.077
534,0.082,-0.488,-0.570,0.203,0.327,-0.529,0.205,0.350,0.732,0.616,0.651,0.580,0.203,-0.710,-0.080
535,0.092,-0.483,-0.575,0.195,0.334,-0.529,0.206,0.353,0.733,0.619,0.652,0.580,0.204,-0.715,-0.080
536,0.084,-0.491,-0.575,0.203,0.330,-0.532,0.212,0.355,0.734,0.621,0.652,0.582,0.203,-0.708,-0.079
537,0.080,-0.495,-0.576,0.207,0.329,-0.535,0.213,0.360,0.740,0.626,0.654,0.582,0.201,-0.715,-0.081
538,0.084,-0.492,-0.576,0.203,0.330,-0.534,0.217,0.362,0.743,0.627,0.655,0.580,0.203,-0.720,-0.080
539,0.089,-0.490,-0.579,0.200,0.335,-0.534,0.215,0.359,0.741,0.625,0.651,0.576,0.201,-0.718,-0.080
540,0.089,-0.485,-0.575,0.197,0.332,-0.530,0.209,0.359,0.739,0.624,0.649,0.575,0.201,-0.714,-0.081
541,0.087,-0.478,-0.566,0.195,0.327,-0.521,0.209,0.360,0.741,0.623,0.649,0.576,0.203,-0.714,-0.082
542,0.092,-0.471,-0.562,0.189,0.327,-0.516,0.208,0.362,0.745,0.624,0.651,0.579,0.206,-0.711,-0.083
543,0.092,-0.470,-0.561,0.189,0.327,-0.516,0.210,0.365,0.747,0.627,0.652,0.581,0.210,-0.707,-0.082
544,0.090,-0.474,-0.564,0.192,0.327,-0.519,0.216,0.369,0.751,0.630,0.654,0.583,0.212,-0.707,-0.082
545,0.094,-0.471,-0.566,0.188,0.330,-0.518,0.221,0.372,0.755,0.629,0.655,0.586,0.215,-0.698,-0.082
546,0.096,-0.463,-0.558,0.183,0.327,-0.510,0.216,0.372,0.751,0.628,0.654,0.584,0.216,-0.692,-0.083
547,0.087,-0.460,-0.546,0.185,0.318,-0.503,0.215,0.376,0.755,0.629,0.653,0.585,0.217,-0.696,-0.083
548,0.088,-0.462,-0.549,0.186,0.320,-0.505,0.216,0.373,0.757,0.627,0.651,0.584,0.216,-0.703,-0.081
549,0.088,-0.467,-0.555,0.189,0.322,-0.511,0.217,0.376,0.756,0.626,0.652,0.584,0.214,-0.705,-0.082
550,0.093,-0.469,-0.562,0.187,0.328,-0.515,0.216,0.381,0.761,0.628,0.654,0.588,0.216,-0.705,-0.085
551,0.100,-0.476,-0.576,0.188,0.338,-0.526,0.217,0.383,0.762,0.631,0.655,0.590,0.218,-0.712,-0.086
552,0.097,-0.484,-0.580,0.193,0.339,-0.532,0.225,0.388,0.768,0.637,0.657,0.592,0.215,-0.716,-0.084
553,0.096,-0.481,-0.576,0.192,0.336,-0.528,0.218,0.383,0.771,0.640,0.657,0.592,0.217,-0.715,-0.086
554,0.095,-0.481,-0.576,0.193,0.336,-0.528,0.208,0.383,0.767,0.636,0.656,0.589,0.221,-0.703,-0.086
555,0.102,-0.473,-0.575,0.185,0.339,-0.523,0.212,0.389,0.771,0.640,0.656,0.589,0.218,-0.695,-0.087
556,0.108,-0.473,-0.581,0.181,0.345,-0.527,0.217,0.393,0.770,0.643,0.660,0.593,0.217,-0.706,-0.089
557,0.100,-0.485,-0.585,0.192,0.343,-0.535,0.214,0.394,0.774,0.644,0.660,0.593,0.215,-0.713,-0.087
558,0.097,-0.486,-0.582,0.194,0.340,-0.534,0.215,0.398,0.784,0.650,0.660,0.591,0.213,-0.715,-0.089
559,0.102,-0.478,-0.581,0.188,0.342,-0.529,0.221,0.402,0.786,0.652,0.661,0.591,0.211,-0.711,-0.092
560,0.095,-0.475,-0.569,0.190,0.332,-0.522,0.223,0.404,0.787,0.654,0.662,0.592,0.211,-0.704,-0.093
561,0.091,-0.472,-0.564,0.190,0.328,-0.518,0.220,0.406,0.789,0.655,0.664,0.591,0.212,-0.702,-0.093
562,0.095,-0.465,-0.560,0.184,0.328,-0.512,0.217,0.407,0.792,0.656,0.663,0.589,0.211,-0.702,-0.097
563,0.096,-0.467,-0.562,0.185,0.329,-0.514,0.215,0.406,0.791,0.658,0.662,0.588,0.209,-0.703,-0.097
564,0.101,-0.471,-0.572,0.184,0.337,-0.521,0.208,0.405,0.792,0.658,0.662,0.587,0.209,-0.692,-0.098
565,0.109,-0.467,-0.576,0.178,0.343,-0.521,0.212,0.406,0.795,0.661,0.665,0.588,0.210,-0.695,-0.100
566,0.108,-0.452,-0.560,0.172,0.335,-0.506,0.212,0.411,0.796,0.660,0.667,0.589,0.210,-0.698,-0.100
567,0.099,-0.451,-0.549,0.175,0.324,-0.500,0.209,0.413,0.799,0.661,0.665,0.589,0.212,-0.690,-0.099
568,0.102,-0.453,-0.554,0.174,0.329,-0.503,0.212,0.415,0.804,0.665,0.669,0.592,0.216,-0.679,-0.100
569,0.110,-0.451,-0.560,0.170,0.336,-0.505,0.207,0.416,0.806,0.665,0.669,0.592,0.219,-0.676,-0.100
570,0.106,-0.458,-0.564,0.175,0.335,-0.510,0.207,0.417,0.807,0.668,0.667,0.591,0.217,-0.698,-0.100
571,0.105,-0.464,-0.569,0.178,0.337,-0.516,0.208,0.424,0.813,0.673,0.672,0.593,0.218,-0.705,-0.097
572,0.105,-0.474,-0.579,0.183,0.343,-0.526,0.212,0.431,0.820,0.678,0.675,0.595,0.218,-0.702,-0.096
573,0.098,-0.477,-0.575,0.190,0.336,-0.526,0.217,0.434,0.823,0.682,0.675,0.596,0.220,-0.697,-0.098
574,0.097,-0.472,-0.569,0.187,0.334,-0.520,0.216,0.434,0.826,0.685,0.674,0.595,0.222,-0.697,-0.100
575,0.107,-0.466,-0.573,0.178,0.341,-0.519,0.218,0.439,0.831,0.691,0.677,0.599,0.226,-0.703,-0.102
576,0.116,-0.471,-0.587,0.177,0.351,-0.529,0.216,0.442,0.834,0.691,0.676,0.596,0.226,-0.711,-0.102
577,0.119,-0.474,-0.593,0.176,0.356,-0.533,0.224,0.446,0.841,0.697,0.678,0.597,0.226,-0.710,-0.103
578,0.115,-0.474,-0.589,0.178,0.352,-0.531,0.234,0.452,0.846,0.701,0.681,0.601,0.227,-0.704,-0.105
579,0.115,-0.477,-0.592,0.180,0.353,-0.534,0.226,0.452,0.847,0.701,0.676,0.597,0.227,-0.704,-0.104
580,0.123,-0.467,-0.589,0.171,0.356,-0.527,0.225,0.460,0.855,0.707,0.679,0.600,0.233,-0.701,-0.106
581,0.120,-0.463,-0.583,0.171,0.352,-0.523,0.227,0.457,0.852,0.705,0.678,0.599,0.234,-0.702,-0.107
582,0.119,-0.457,-0.576,0.168,0.348,-0.516,0.229,0.464,0.858,0.707,0.680,0.600,0.235,-0.698,-0.110
583,0.120,-0.454,-0.574,0.166,0.347,-0.514,0.230,0.468,0.863,0.714,0.685,0.601,0.237,-0.696,-0.109
584,0.118,-0.458,-0.575,0.169,0.347,-0.516,0.225,0.466,0.863,0.715,0.684,0.598,0.236,-0.702,-0.110
585,0.116,-0.458,-0.573,0.171,0.344,-0.515,0.228,0.480,0.877,0.723,0.686,0.599,0.238,-0.696,-0.112
586,0.117,-0.452,-0.568,0.167,0.342,-0.509,0.227,0.476,0.876,0.723,0.683,0.596,0.239,-0.688,-0.114
587,0.128,-0.441,-0.569,0.156,0.348,-0.504,0.225,0.473,0.875,0.721,0.682,0.594,0.240,-0.685,-0.115
588,0.130,-0.442,-0.572,0.155,0.351,-0.506,0.224,0.477,0.883,0.727,0.687,0.594,0.241,-0.688,-0.115
589,0.130,-0.444,-0.573,0.157,0.351,-0.508,0.225,0.484,0.890,0.732,0.688,0.598,0.240,-0.687,-0.119
590,0.136,-0.447,-0.582,0.155,0.359,-0.514,0.228,0.490,0.895,0.733,0.690,0.601,0.243,-0.691,-0.117
591,0.132,-0.457,-0.588,0.162,0.360,-0.522,0.225,0.492,0.899,0.737,0.691,0.600,0.245,-0.697,-0.116
592,0.127,-0.468,-0.594,0.170,0.360,-0.530,0.229,0.500,0.905,0.739,0.691,0.600,0.243,-0.697,-0.115
593,0.131,-0.468,-0.599,0.168,0.365,-0.533,0.225,0.503,0.915,0.746,0.694,0.600,0.244,-0.703,-0.115
594,0.133,-0.465,-0.597,0.165,0.365,-0.531,0.226,0.504,0.914,0.746,0.693,0.599,0.243,-0.698,-0.117
595,0.135,-0.462,-0.597,0.163,0.366,-0.529,0.228,0.508,0.920,0.749,0.694,0.600,0.247,-0.696,-0.117
596,0.134,-0.469,-0.602,0.167,0.368,-0.535,0.226,0.522,0.932,0.760,0.701,0.604,0.250,-0.702,-0.119
597,0.127,-0.479,-0.605,0.175,0.366,-0.542,0.232,0.527,0.935,0.765,0.703,0.606,0.248,-0.705,-0.119
598,0.130,-0.477,-0.607,0.173,0.368,-0.542,0.232,0.528,0.938,0.769,0.705,0.606,0.251,-0.707,-0.119
599,0.137,-0.472,-0.609,0.167,0.373,-0.540,0.227,0.533,0.942,0.771,0.706,0.607,0.252,-0.707,-0.119
600,0.142,-0.464,-0.606,0.161,0.374,-0.534,0.229,0.537,0.948,0.775,0.708,0.609,0.256,-0.705,-0.122
601,0.144,-0.460,-0.603,0.158,0.373,-0.531,0.229,0.541,0.951,0.779,0.710,0.610,0.258,-0.700,-0.125
602,0.143,-0.456,-0.598,0.156,0.370,-0.526,0.230,0.546,0.959,0.784,0.713,0.614,0.260,-0.701,-0.127
603,0.132,-0.455,-0.586,0.161,0.359,-0.520,0.233,0.554,0.970,0.792,0.719,0.621,0.262,-0.701,-0.128
604,0.131,-0.457,-0.587,0.163,0.359,-0.521,0.231,0.559,0.976,0.798,0.723,0.623,0.262,-0.696,-0.129
605,0.138,-0.458,-0.595,0.160,0.366,-0.526,0.230,0.563,0.980,0.801,0.723,0.621,0.266,-0.698,-0.130
606,0.141,-0.449,-0.590,0.153,0.365,-0.519,0.229,0.567,0.982,0.802,0.722,0.619,0.268,-0.692,-0.131
607,0.146,-0.440,-0.585,0.146,0.365,-0.512,0.229,0.571,0.988,0.806,0.720,0.618,0.266,-0.688,-0.136
608,0.145,-0.442,-0.587,0.147,0.366,-0.514,0.231,0.578,0.995,0.810,0.722,0.618,0.269,-0.690,-0.136
609,0.146,-0.442,-0.587,0.147,0.366,-0.514,0.228,0.584,1.001,0.815,0.724,0.620,0.271,-0.691,-0.136
610,0.139,-0.451,-0.589,0.156,0.364,-0.520,0.231,0.588,1.006,0.820,0.725,0.618,0.263,-0.688,-0.142
611,0.150,-0.454,-0.603,0.151,0.377,-0.528,0.233,0.593,1.013,0.824,0.728,0.618,0.262,-0.698,-0.143
612,0.160,-0.457,-0.616,0.148,0.388,-0.536,0.230,0.599,1.023,0.831,0.731,0.622,0.268,-0.707,-0.141
613,0.150,-0.465,-0.615,0.157,0.383,-0.540,0.232,0.609,1.032,0.837,0.734,0.623,0.269,-0.699,-0.142
614,0.158,-0.457,-0.614,0.149,0.386,-0.535,0.232,0.615,1.040,0.843,0.736,0.625,0.272,-0.699,-0.145
615,0.166,-0.450,-0.616,0.141,0.391,-0.533,0.231,0.623,1.047,0.851,0.740,0.626,0.276,-0.701,-0.146
616,0.167,-0.453,-0.620,0.143,0.394,-0.536,0.234,0.630,1.056,0.858,0.745,0.627,0.277,-0.704,-0.148
617,0.169,-0.460,-0.627,0.145,0.399,-0.543,0.232,0.636,1.065,0.865,0.748,0.628,0.281,-0.707,-0.147
618,0.166,-0.462,-0.626,0.148,0.396,-0.544,0.231,0.643,1.075,0.873,0.751,0.629,0.285,-0.706,-0.148
619,0.163,-0.461,-0.623,0.149,0.393,-0.542,0.236,0.649,1.083,0.876,0.754,0.628,0.282,-0.705,-0.152
620,0.171,-0.455,-0.625,0.141,0.398,-0.539,0.235,0.656,1.089,0.882,0.756,0.629,0.285,-0.706,-0.154
621,0.175,-0.445,-0.620,0.135,0.398,-0.532,0.237,0.664,1.100,0.890,0.760,0.633,0.294,-0.699,-0.155
622,0.172,-0.441,-0.612,0.134,0.393,-0.526,0.236,0.668,1.107,0.894,0.761,0.631,0.293,-0.693,-0.158
623,0.177,-0.436,-0.614,0.130,0.396,-0.525,0.237,0.675,1.113,0.898,0.762,0.629,0.290,-0.688,-0.161
624,0.183,-0.438,-0.621,0.128,0.402,-0.529,0.242,0.684,1.123,0.906,0.765,0.632,0.292,-0.687,-0.164
625,0.183,-0.441,-0.623,0.129,0.404,-0.532,0.239,0.691,1.131,0.910,0.765,0.632,0.296,-0.691,-0.164
626,0.186,-0.432,-0.619,0.122,0.403,-0.525,0.234,0.697,1.137,0.914,0.766,0.630,0.298,-0.688,-0.165
627,0.192,-0.423,-0.614,0.116,0.403,-0.519,0.238,0.706,1.147,0.922,0.770,0.632,0.301,-0.684,-0.169
628,0.194,-0.424,-0.619,0.115,0.406,-0.521,0.235,0.714,1.157,0.929,0.772,0.634,0.306,-0.688,-0.170
629,0.190,-0.429,-0.619,0.119,0.405,-0.524,0.238,0.723,1.169,0.938,0.778,0.636,0.309,-0.688,-0.173
630,0.183,-0.434,-0.617,0.126,0.400,-0.525,0.240,0.732,1.179,0.945,0.781,0.638,0.310,-0.681,-0.173
631,0.187,-0.441,-0.627,0.127,0.407,-0.534,0.239,0.740,1.190,0.953,0.783,0.639,0.312,-0.690,-0.174
632,0.212,-0.444,-0.655,0.116,0.434,-0.549,0.234,0.745,1.197,0.957,0.783,0.637,0.311,-0.702,-0.177
633,0.225,-0.445,-0.669,0.110,0.447,-0.557,0.230,0.750,1.204,0.961,0.781,0.633,0.313,-0.706,-0.176
634,0.212,-0.440,-0.652,0.114,0.432,-0.546,0.241,0.762,1.216,0.971,0.785,0.636,0.314,-0.697,-0.180
635,0.208,-0.433,-0.642,0.112,0.425,-0.538,0.244,0.774,1.228,0.980,0.790,0.639,0.315,-0.691,-0.184
636,0.210,-0.442,-0.651,0.116,0.431,-0.546,0.244,0.783,1.240,0.990,0.794,0.640,0.318,-0.704,-0.183
637,0.213,-0.447,-0.659,0.117,0.436,-0.553,0.242,0.792,1.250,0.999,0.798,0.642,0.320,-0.706,-0.182
638,0.223,-0.442,-0.664,0.109,0.444,-0.552,0.242,0.800,1.264,1.010,0.802,0.643,0.323,-0.702,-0.188
639,0.234,-0.438,-0.671,0.102,0.453,-0.554,0.241,0.804,1.274,1.017,0.805,0.642,0.327,-0.702,-0.193
640,0.234,-0.434,-0.668,0.100,0.452,-0.551,0.236,0.815,1.274,1.019,0.808,0.644,0.329,-0.701,-0.195
641,0.235,-0.430,-0.665,0.098,0.451,-0.548,0.240,0.826,1.288,1.028,0.809,0.644,0.330,-0.698,-0.197
642,0.239,-0.424,-0.662,0.092,0.451,-0.543,0.239,0.832,1.301,1.038,0.811,0.647,0.340,-0.696,-0.198
643,0.245,-0.417,-0.662,0.086,0.454,-0.540,0.239,0.839,1.310,1.050,0.818,0.651,0.345,-0.698,-0.202
644,0.248,-0.419,-0.666,0.086,0.458,-0.542,0.242,0.847,1.319,1.056,0.821,0.651,0.344,-0.695,-0.204
645,0.250,-0.420,-0.669,0.085,0.460,-0.544,0.243,0.857,1.328,1.060,0.823,0.653,0.348,-0.692,-0.204
646,0.254,-0.413,-0.666,0.079,0.461,-0.540,0.242,0.861,1.337,1.067,0.826,0.653,0.352,-0.695,-0.207
647,0.258,-0.406,-0.664,0.074,0.462,-0.535,0.238,0.865,1.343,1.073,0.826,0.651,0.354,-0.693,-0.210
648,0.264,-0.408,-0.671,0.072,0.468,-0.540,0.237,0.876,1.357,1.083,0.829,0.653,0.357,-0.696,-0.213
649,0.261,-0.411,-0.671,0.074,0.467,-0.541,0.244,0.889,1.370,1.092,0.834,0.654,0.360,-0.692,-0.217
650,0.258,-0.417,-0.675,0.080,0.467,-0.546,0.247,0.897,1.378,1.099,0.837,0.655,0.359,-0.696,-0.219
651,0.266,-0.422,-0.688,0.078,0.476,-0.555,0.246,0.905,1.389,1.109,0.840,0.655,0.360,-0.699,-0.220
652,0.274,-0.425,-0.699,0.075,0.486,-0.562,0.246,0.913,1.399,1.116,0.842,0.654,0.363,-0.697,-0.223
653,0.274,-0.432,-0.706,0.079,0.490,-0.569,0.245,0.926,1.411,1.125,0.846,0.657,0.366,-0.710,-0.221
654,0.271,-0.431,-0.702,0.080,0.486,-0.567,0.251,0.938,1.423,1.133,0.848,0.659,0.367,-0.712,-0.224
655,0.270,-0.427,-0.697,0.079,0.483,-0.562,0.253,0.945,1.428,1.139,0.850,0.658,0.370,-0.710,-0.227
656,0.277,-0.427,-0.704,0.075,0.490,-0.566,0.255,0.955,1.444,1.149,0.854,0.659,0.374,-0.709,-0.227
657,0.283,-0.438,-0.721,0.077,0.502,-0.579,0.253,0.962,1.449,1.152,0.854,0.658,0.375,-0.716,-0.228
658,0.284,-0.444,-0.727,0.080,0.505,-0.585,0.254,0.967,1.453,1.153,0.855,0.658,0.374,-0.720,-0.231
659,0.286,-0.435,-0.721,0.074,0.504,-0.579,0.262,0.977,1.466,1.163,0.859,0.660,0.373,-0.712,-0.236
660,0.288,-0.427,-0.715,0.070,0.501,-0.572,0.260,0.986,1.472,1.169,0.860,0.660,0.374,-0.710,-0.238
661,0.285,-0.421,-0.706,0.068,0.496,-0.564,0.260,0.993,1.482,1.173,0.864,0.660,0.375,-0.702,-0.243
662,0.285,-0.423,-0.708,0.069,0.496,-0.566,0.259,0.996,1.486,1.177,0.863,0.657,0.374,-0.699,-0.245
663,0.290,-0.425,-0.715,0.068,0.502,-0.570,0.261,1.002,1.493,1.185,0.862,0.657,0.377,-0.706,-0.245
664,0.293,-0.421,-0.714,0.064,0.504,-0.568,0.265,1.016,1.506,1.195,0.867,0.660,0.379,-0.709,-0.247
665,0.295,-0.423,-0.718,0.064,0.506,-0.571,0.268,1.022,1.512,1.200,0.867,0.659,0.383,-0.708,-0.250
666,0.308,-0.414,-0.723,0.052,0.515,-0.568,0.260,1.021,1.514,1.202,0.866,0.657,0.386,-0.705,-0.253
667,0.321,-0.403,-0.723,0.041,0.521,-0.562,0.258,1.025,1.517,1.205,0.866,0.656,0.388,-0.703,-0.254
668,0.308,-0.406,-0.715,0.049,0.511,-0.560,0.268,1.036,1.528,1.213,0.870,0.657,0.386,-0.702,-0.257
669,0.300,-0.415,-0.715,0.058,0.508,-0.566,0.271,1.044,1.538,1.220,0.875,0.658,0.385,-0.708,-0.261
670,0.308,-0.422,-0.730,0.057,0.519,-0.576,0.270,1.044,1.538,1.220,0.873,0.656,0.384,-0.712,-0.260
671,0.318,-0.427,-0.745,0.054,0.531,-0.586,0.269,1.054,1.546,1.228,0.877,0.658,0.388,-0.714,-0.260
672,0.322,-0.431,-0.752,0.054,0.537,-0.592,0.272,1.062,1.554,1.234,0.880,0.658,0.389,-0.721,-0.262
673,0.316,-0.440,-0.755,0.062,0.536,-0.598,0.272,1.063,1.557,1.236,0.880,0.656,0.387,-0.725,-0.261
674,0.315,-0.443,-0.756,0.064,0.535,-0.599,0.277,1.068,1.562,1.241,0.882,0.657,0.385,-0.727,-0.263
675,0.314,-0.441,-0.753,0.064,0.534,-0.598,0.279,1.068,1.562,1.244,0.882,0.656,0.384,-0.728,-0.266
676,0.312,-0.453,-0.763,0.070,0.538,-0.608,0.277,1.075,1.569,1.250,0.884,0.659,0.386,-0.732,-0.267
677,0.319,-0.459,-0.778,0.070,0.548,-0.619,0.278,1.075,1.571,1.252,0.885,0.657,0.385,-0.739,-0.266
678,0.317,-0.456,-0.772,0.070,0.544,-0.614,0.277,1.077,1.571,1.253,0.886,0.656,0.384,-0.739,-0.269
679,0.317,-0.452,-0.768,0.068,0.542,-0.610,0.282,1.081,1.573,1.256,0.887,0.657,0.383,-0.739,-0.273
680,0.324,-0.448,-0.771,0.061,0.548,-0.610,0.285,1.081,1.573,1.255,0.884,0.654,0.383,-0.736,-0.273
681,0.328,-0.440,-0.766,0.056,0.547,-0.603,0.282,1.080,1.573,1.256,0.884,0.653,0.383,-0.730,-0.274
682,0.329,-0.436,-0.765,0.053,0.547,-0.601,0.281,1.077,1.565,1.254,0.881,0.655,0.386,-0.733,-0.273
683,0.328,-0.438,-0.764,0.055,0.546,-0.601,0.282,1.079,1.562,1.254,0.881,0.654,0.386,-0.727,-0.273
684,0.327,-0.443,-0.768,0.058,0.548,-0.606,0.279,1.071,1.556,1.249,0.877,0.648,0.384,-0.733,-0.270
685,0.324,-0.447,-0.769,0.061,0.547,-0.608,0.281,1.069,1.550,1.246,0.876,0.649,0.385,-0.733,-0.269
686,0.322,-0.437,-0.758,0.058,0.540,-0.598,0.284,1.065,1.546,1.246,0.877,0.649,0.384,-0.725,-0.272
687,0.317,-0.433,-0.750,0.058,0.533,-0.592,0.285,1.065,1.547,1.242,0.875,0.648,0.382,-0.726,-0.273
688,0.319,-0.433,-0.752,0.057,0.535,-0.593,0.287,1.063,1.544,1.240,0.874,0.647,0.382,-0.728,-0.272
689,0.320,-0.436,-0.756,0.058,0.538,-0.597,0.286,1.054,1.530,1.233,0.870,0.642,0.380,-0.728,-0.271
690,0.312,-0.442,-0.753,0.065,0.532,-0.598,0.293,1.051,1.524,1.230,0.870,0.639,0.373,-0.727,-0.272
691,0.310,-0.446,-0.756,0.068,0.533,-0.601,0.293,1.042,1.518,1.225,0.867,0.637,0.370,-0.733,-0.270
692,0.312,-0.451,-0.762,0.069,0.537,-0.607,0.293,1.039,1.508,1.218,0.865,0.635,0.370,-0.736,-0.266
693,0.308,-0.455,-0.762,0.073,0.536,-0.609,0.292,1.033,1.499,1.213,0.862,0.634,0.366,-0.736,-0.265
694,0.301,-0.460,-0.760,0.079,0.531,-0.610,0.295,1.024,1.488,1.207,0.860,0.631,0.361,-0.740,-0.262
695,0.296,-0.455,-0.751,0.079,0.524,-0.603,0.296,1.019,1.480,1.202,0.860,0.633,0.361,-0.738,-0.262
696,0.288,-0.461,-0.749,0.086,0.518,-0.605,0.295,1.012,1.470,1.196,0.856,0.633,0.357,-0.738,-0.260
697,0.288,-0.469,-0.756,0.090,0.522,-0.613,0.298,1.002,1.456,1.186,0.852,0.629,0.352,-0.743,-0.258
698,0.289,-0.467,-0.754,0.088,0.522,-0.611,0.297,0.991,1.444,1.177,0.848,0.628,0.349,-0.741,-0.259
699,0.277,-0.468,-0.744,0.096,0.510,-0.606,0.303,0.980,1.429,1.167,0.843,0.625,0.343,-0.737,-0.257
700,0.281,-0.462,-0.742,0.090,0.512,-0.602,0.298,0.965,1.411,1.153,0.836,0.621,0.342,-0.736,-0.255
701,0.286,-0.452,-0.738,0.083,0.512,-0.595,0.299,0.951,1.393,1.141,0.829,0.617,0.338,-0.730,-0.252
702,0.282,-0.447,-0.728,0.082,0.505,-0.587,0.300,0.934,1.375,1.125,0.823,0.615,0.333,-0.722,-0.251
703,0.276,-0.449,-0.724,0.086,0.499,-0.586,0.294,0.917,1.357,1.112,0.817,0.615,0.330,-0.723,-0.245
704,0.264,-0.451,-0.714,0.093,0.489,-0.583,0.297,0.900,1.336,1.099,0.809,0.611,0.322,-0.718,-0.242
705,0.254,-0.453,-0.706,0.100,0.480,-0.580,0.299,0.897,1.327,1.089,0.807,0.609,0.317,-0.720,-0.240
706,0.244,-0.446,-0.690,0.101,0.467,-0.568,0.299,0.884,1.310,1.077,0.804,0.609,0.312,-0.719,-0.236
707,0.234,-0.440,-0.673,0.103,0.454,-0.556,0.298,0.860,1.286,1.059,0.796,0.606,0.307,-0.708,-0.234
708,0.230,-0.440,-0.668,0.104,0.450,-0.554,0.298,0.847,1.269,1.046,0.793,0.606,0.302,-0.711,-0.231
709,0.242,-0.433,-0.675,0.095,0.460,-0.554,0.294,0.830,1.250,1.031,0.787,0.605,0.299,-0.703,-0.228
710,0.234,-0.441,-0.674,0.103,0.455,-0.557,0.294,0.816,1.234,1.018,0.782,0.604,0.291,-0.700,-0.224
711,0.218,-0.452,-0.669,0.116,0.445,-0.560,0.297,0.803,1.216,1.005,0.778,0.603,0.285,-0.709,-0.218
712,0.215,-0.456,-0.671,0.120,0.444,-0.563,0.297,0.789,1.200,0.992,0.774,0.601,0.286,-0.706,-0.211
713,0.204,-0.458,-0.661,0.126,0.433,-0.559,0.297,0.773,1.181,0.978,0.771,0.599,0.278,-0.709,-0.209
714,0.198,-0.460,-0.657,0.131,0.428,-0.558,0.297,0.757,1.166,0.967,0.766,0.598,0.270,-0.711,-0.207
715,0.195,-0.458,-0.652,0.131,0.424,-0.555,0.295,0.743,1.147,0.951,0.760,0.596,0.270,-0.708,-0.200
716,0.186,-0.460,-0.645,0.137,0.416,-0.552,0.295,0.727,1.126,0.936,0.755,0.595,0.263,-0.706,-0.197
717,0.178,-0.468,-0.645,0.145,0.412,-0.556,0.294,0.713,1.111,0.926,0.752,0.595,0.259,-0.705,-0.193
718,0.179,-0.467,-0.645,0.144,0.412,-0.556,0.287,0.699,1.090,0.908,0.747,0.592,0.257,-0.708,-0.186
719,0.169,-0.466,-0.634,0.148,0.402,-0.550,0.292,0.683,1.075,0.895,0.740,0.590,0.248,-0.707,-0.185
720,0.159,-0.462,-0.620,0.151,0.390,-0.541,0.290,0.670,1.060,0.881,0.736,0.587,0.243,-0.697,-0.181
721,0.162,-0.454,-0.616,0.146,0.389,-0.535,0.287,0.655,1.040,0.868,0.731,0.585,0.241,-0.694,-0.178
722,0.164,-0.447,-0.610,0.141,0.387,-0.528,0.284,0.637,1.022,0.853,0.724,0.585,0.239,-0.698,-0.176
723,0.160,-0.444,-0.603,0.142,0.382,-0.523,0.281,0.627,1.008,0.842,0.722,0.584,0.234,-0.694,-0.172
724,0.153,-0.449,-0.602,0.147,0.378,-0.525,0.282,0.615,0.995,0.830,0.718,0.582,0.231,-0.691,-0.168
725,0.141,-0.455,-0.596,0.157,0.369,-0.525,0.280,0.601,0.979,0.815,0.711,0.580,0.232,-0.694,-0.163
726,0.138,-0.450,-0.587,0.156,0.362,-0.518,0.276,0.586,0.962,0.801,0.707,0.578,0.226,-0.694,-0.161
727,0.140,-0.445,-0.584,0.152,0.362,-0.514,0.275,0.572,0.947,0.789,0.703,0.577,0.223,-0.686,-0.158
728,0.131,-0.446,-0.576,0.157,0.354,-0.511,0.274,0.563,0.935,0.779,0.699,0.577,0.222,-0.684,-0.154
729,0.129,-0.445,-0.573,0.158,0.351,-0.508,0.273,0.550,0.920,0.769,0.696,0.575,0.219,-0.682,-0.152
730,0.123,-0.450,-0.573,0.163,0.348,-0.511,0.275,0.543,0.910,0.762,0.696,0.577,0.217,-0.688,-0.147
731,0.122,-0.454,-0.576,0.165,0.349,-0.514,0.272,0.530,0.903,0.755,0.694,0.577,0.217,-0.690,-0.144
732,0.118,-0.461,-0.579,0.171,0.348,-0.519,0.274,0.518,0.888,0.746,0.689,0.573,0.215,-0.683,-0.139
733,0.107,-0.464,-0.571,0.177,0.339,-0.517,0.271,0.512,0.873,0.732,0.682,0.571,0.207,-0.693,-0.135
734,0.101,-0.468,-0.568,0.183,0.335,-0.518,0.264,0.500,0.864,0.724,0.677,0.568,0.200,-0.697,-0.131
735,0.102,-0.466,-0.568,0.181,0.336,-0.517,0.265,0.492,0.854,0.716,0.676,0.570,0.200,-0.693,-0.128
736,0.113,-0.465,-0.577,0.175,0.345,-0.521,0.261,0.483,0.844,0.708,0.672,0.568,0.200,-0.700,-0.126
737,0.108,-0.471,-0.580,0.181,0.344,-0.525,0.264,0.478,0.836,0.703,0.671,0.568,0.197,-0.700,-0.124
738,0.100,-0.471,-0.571,0.185,0.336,-0.521,0.265,0.470,0.827,0.696,0.670,0.569,0.193,-0.696,-0.122
739,0.098,-0.472,-0.569,0.186,0.334,-0.520,0.262,0.461,0.819,0.689,0.667,0.567,0.193,-0.700,-0.118
740,0.099,-0.465,-0.564,0.182,0.332,-0.514,0.266,0.455,0.810,0.682,0.667,0.567,0.191,-0.693,-0.117
741,0.103,-0.456,-0.559,0.175,0.332,-0.507,0.263,0.446,0.798,0.671,0.661,0.564,0.186,-0.687,-0.116
742,0.097,-0.454,-0.550,0.178,0.324,-0.502,0.258,0.438,0.790,0.663,0.658,0.562,0.182,-0.688,-0.115
743,0.097,-0.454,-0.550,0.177,0.324,-0.502,0.255,0.428,0.781,0.658,0.656,0.562,0.183,-0.688,-0.113
744,0.104,-0.455,-0.558,0.174,0.332,-0.506,0.250,0.420,0.773,0.653,0.654,0.562,0.183,-0.686,-0.111
745,0.094,-0.461,-0.554,0.182,0.325,-0.507,0.251,0.415,0.768,0.649,0.653,0.562,0.180,-0.685,-0.110
746,0.086,-0.460,-0.545,0.186,0.316,-0.503,0.245,0.405,0.756,0.638,0.647,0.560,0.178,-0.689,-0.105
747,0.082,-0.454,-0.535,0.185,0.309,-0.494,0.240,0.398,0.750,0.631,0.643,0.558,0.180,-0.685,-0.102
748,0.077,-0.457,-0.533,0.189,0.305,-0.495,0.244,0.394,0.745,0.626,0.641,0.558,0.176,-0.677,-0.102
749,0.083,-0.455,-0.537,0.185,0.310,-0.496,0.243,0.392,0.740,0.623,0.640,0.558,0.174,-0.686,-0.101
750,0.081,-0.461,-0.541,0.190,0.311,-0.501,0.240,0.386,0.738,0.622,0.641,0.561,0.174,-0.695,-0.097
751,0.074,-0.469,-0.542,0.197,0.308,-0.506,0.243,0.382,0.734,0.619,0.638,0.561,0.170,-0.693,-0.097
752,0.072,-0.476,-0.547,0.202,0.310,-0.512,0.243,0.380,0.728,0.613,0.634,0.557,0.164,-0.697,-0.095
753,0.070,-0.478,-0.547,0.203,0.308,-0.512,0.241,0.374,0.727,0.611,0.633,0.557,0.166,-0.693,-0.092
754,0.069,-0.477,-0.545,0.203,0.307,-0.511,0.240,0.372,0.726,0.608,0.632,0.555,0.163,-0.694,-0.092
755,0.066,-0.479,-0.544,0.206,0.305,-0.511,0.243,0.373,0.717,0.602,0.629,0.554,0.159,-0.698,-0.091
756,0.057,-0.482,-0.538,0.212,0.298,-0.510,0.245,0.370,0.719,0.603,0.631,0.556,0.160,-0.696,-0.089
757,0.054,-0.490,-0.544,0.217,0.299,-0.517,0.247,0.369,0.718,0.602,0.631,0.555,0.155,-0.703,-0.087
758,0.059,-0.486,-0.545,0.213,0.302,-0.516,0.247,0.366,0.709,0.595,0.628,0.554,0.156,-0.703,-0.086
759,0.051,-0.489,-0.539,0.218,0.295,-0.514,0.246,0.365,0.710,0.595,0.628,0.553,0.157,-0.701,-0.088
760,0.049,-0.487,-0.536,0.218,0.293,-0.512,0.246,0.365,0.708,0.592,0.627,0.553,0.158,-0.699,-0.087
761,0.060,-0.476,-0.535,0.207,0.297,-0.505,0.240,0.355,0.700,0.587,0.625,0.552,0.157,-0.700,-0.086
762,0.062,-0.468,-0.530,0.203,0.296,-0.499,0.240,0.354,0.699,0.586,0.624,0.551,0.158,-0.695,-0.086
763,0.059,-0.469,-0.527,0.203,0.294,-0.498,0.237,0.353,0.696,0.584,0.623,0.553,0.159,-0.691,-0.084
764,0.058,-0.469,-0.526,0.205,0.292,-0.498,0.237,0.351,0.694,0.580,0.622,0.550,0.157,-0.692,-0.085
765,0.054,-0.467,-0.520,0.206,0.287,-0.494,0.243,0.351,0.694,0.580,0.623,0.551,0.158,-0.691,-0.085
766,0.056,-0.466,-0.520,0.204,0.288,-0.493,0.237,0.344,0.688,0.577,0.620,0.551,0.161,-0.690,-0.083
767,0.061,-0.462,-0.522,0.200,0.292,-0.492,0.231,0.343,0.684,0.574,0.617,0.548,0.166,-0.688,-0.083
768,0.058,-0.463,-0.520,0.202,0.289,-0.491,0.232,0.340,0.682,0.573,0.618,0.549,0.167,-0.691,-0.081
769,0.059,-0.465,-0.522,0.202,0.290,-0.493,0.229,0.336,0.680,0.571,0.617,0.545,0.165,-0.693,-0.079
770,0.064,-0.469,-0.531,0.202,0.298,-0.500,0.230,0.337,0.681,0.571,0.618,0.546,0.166,-0.694,-0.078
771,0.059,-0.476,-0.534,0.208,0.296,-0.504,0.238,0.340,0.682,0.576,0.622,0.550,0.167,-0.696,-0.080
772,0.053,-0.486,-0.539,0.215,0.296,-0.512,0.238,0.339,0.681,0.577,0.622,0.552,0.170,-0.703,-0.076
773,0.053,-0.487,-0.540,0.216,0.297,-0.514,0.235,0.335,0.679,0.573,0.623,0.552,0.172,-0.704,-0.072
774,0.053,-0.484,-0.536,0.214,0.295,-0.510,0.237,0.335,0.679,0.573,0.622,0.551,0.172,-0.699,-0.072
775,0.053,-0.485,-0.538,0.215,0.296,-0.511,0.235,0.338,0.681,0.571,0.623,0.552,0.173,-0.699,-0.071
776,0.053,-0.486,-0.539,0.215,0.296,-0.513,0.236,0.340,0.683,0.571,0.624,0.553,0.175,-0.702,-0.071
777,0.058,-0.491,-0.548,0.216,0.303,-0.520,0.237,0.339,0.680,0.570,0.624,0.552,0.175,-0.708,-0.070
778,0.058,-0.490,-0.547,0.215,0.303,-0.519,0.236,0.338,0.679,0.570,0.624,0.553,0.175,-0.709,-0.070
779,0.057,-0.487,-0.542,0.214,0.300,-0.515,0.234,0.336,0.681,0.572,0.624,0.555,0.172,-0.703,-0.072
780,0.056,-0.487,-0.541,0.215,0.298,-0.514,0.233,0.332,0.672,0.566,0.622,0.551,0.170,-0.704,-0.072
781,0.054,-0.482,-0.535,0.213,0.294,-0.508,0.233,0.330,0.671,0.562,0.620,0.550,0.173,-0.704,-0.070
782,0.051,-0.473,-0.524,0.210,0.288,-0.499,0.233,0.330,0.676,0.566,0.621,0.554,0.171,-0.697,-0.072
783,0.052,-0.473,-0.524,0.210,0.288,-0.499,0.229,0.330,0.674,0.563,0.620,0.552,0.168,-0.694,-0.072
784,0.058,-0.475,-0.532,0.208,0.295,-0.503,0.229,0.328,0.671,0.561,0.618,0.549,0.164,-0.691,-0.074
785,0.054,-0.473,-0.527,0.209,0.291,-0.500,0.231,0.330,0.671,0.562,0.616,0.549,0.159,-0.691,-0.075
786,0.053,-0.466,-0.519,0.205,0.286,-0.492,0.226,0.330,0.669,0.559,0.615,0.545,0.159,-0.694,-0.075
787,0.052,-0.459,-0.511,0.203,0.282,-0.485,0.229,0.326,0.668,0.557,0.614,0.542,0.155,-0.684,-0.077
788,0.050,-0.461,-0.510,0.205,0.281,-0.485,0.233,0.326,0.668,0.559,0.614,0.543,0.152,-0.685,-0.077
789,0.051,-0.462,-0.512,0.205,0.281,-0.486,0.232,0.327,0.668,0.559,0.614,0.543,0.153,-0.691,-0.077
790,0.050,-0.469,-0.517,0.209,0.284,-0.493,0.230,0.322,0.665,0.556,0.611,0.541,0.153,-0.692,-0.075
791,0.058,-0.476,-0.533,0.208,0.295,-0.505,0.232,0.326,0.668,0.558,0.613,0.541,0.154,-0.693,-0.075
792,0.053,-0.484,-0.537,0.215,0.295,-0.511,0.237,0.333,0.672,0.564,0.615,0.545,0.153,-0.701,-0.077
793,0.046,-0.488,-0.533,0.220,0.290,-0.510,0.240,0.335,0.673,0.564,0.616,0.546,0.151,-0.705,-0.076
794,0.055,-0.479,-0.534,0.211,0.294,-0.506,0.239,0.332,0.675,0.565,0.618,0.548,0.152,-0.697,-0.079
795,0.054,-0.485,-0.539,0.215,0.297,-0.512,0.237,0.331,0.673,0.561,0.615,0.548,0.152,-0.701,-0.079
796,0.054,-0.493,-0.547,0.218,0.301,-0.520,0.239,0.335,0.677,0.563,0.617,0.550,0.152,-0.704,-0.077
797,0.053,-0.493,-0.546,0.220,0.300,-0.520,0.238,0.336,0.678,0.565,0.618,0.554,0.153,-0.706,-0.075
798,0.048,-0.492,-0.539,0.222,0.294,-0.516,0.239,0.335,0.675,0.562,0.617,0.553,0.153,-0.705,-0.076
799,0.048,-0.489,-0.536,0.220,0.292,-0.512,0.239,0.332,0.678,0.563,0.617,0.553,0.155,-0.703,-0.080
800,0.050,-0.484,-0.533,0.217,0.291,-0.509,0.238,0.333,0.679,0.564,0.617,0.552,0.158,-0.704,-0.079
801,0.053,-0.477,-0.529,0.211,0.291,-0.503,0.239,0.334,0.674,0.564,0.615,0.551,0.158,-0.701,-0.080
802,0.056,-0.472,-0.527,0.207,0.291,-0.499,0.237,0.331,0.674,0.560,0.611,0.547,0.153,-0.696,-0.081
803,0.051,-0.473,-0.522,0.210,0.287,-0.498,0.234,0.330,0.679,0.561,0.611,0.546,0.152,-0.693,-0.080
804,0.048,-0.475,-0.523,0.213,0.285,-0.499,0.234,0.333,0.677,0.561,0.613,0.547,0.154,-0.694,-0.079
805,0.054,-0.476,-0.530,0.210,0.292,-0.503,0.236,0.336,0.677,0.562,0.613,0.547,0.158,-0.699,-0.079
806,0.051,-0.472,-0.523,0.209,0.287,-0.497,0.233,0.332,0.675,0.560,0.612,0.546,0.159,-0.697,-0.077
807,0.052,-0.463,-0.513,0.204,0.283,-0.488,0.232,0.333,0.674,0.560,0.610,0.546,0.155,-0.689,-0.079
808,0.052,-0.465,-0.516,0.205,0.284,-0.490,0.233,0.332,0.675,0.561,0.609,0.544,0.153,-0.689,-0.079
809,0.044,-0.468,-0.512,0.211,0.279,-0.490,0.234,0.331,0.675,0.558,0.610,0.544,0.153,-0.688,-0.078
810,0.043,-0.465,-0.507,0.210,0.276,-0.486,0.235,0.334,0.681,0.565,0.610,0.544,0.155,-0.684,-0.078
811,0.050,-0.472,-0.521,0.210,0.285,-0.496,0.231,0.335,0.682,0.564,0.610,0.542,0.154,-0.692,-0.079
812,0.058,-0.478,-0.535,0.209,0.296,-0.506,0.232,0.337,0.676,0.559,0.609,0.543,0.154,-0.702,-0.079
813,0.055,-0.477,-0.531,0.210,0.293,-0.504,0.236,0.338,0.679,0.564,0.612,0.543,0.155,-0.700,-0.077
814,0.054,-0.474,-0.527,0.209,0.291,-0.501,0.234,0.337,0.680,0.563,0.611,0.542,0.155,-0.690,-0.078
815,0.058,-0.472,-0.529,0.206,0.294,-0.501,0.233,0.336,0.680,0.561,0.608,0.542,0.155,-0.688,-0.079
816,0.056,-0.478,-0.533,0.210,0.295,-0.506,0.238,0.339,0.683,0.565,0.610,0.542,0.150,-0.695,-0.079
817,0.051,-0.482,-0.532,0.214,0.292,-0.507,0.240,0.339,0.685,0.566,0.610,0.542,0.150,-0.699,-0.079
818,0.050,-0.479,-0.528,0.214,0.289,-0.504,0.238,0.341,0.685,0.568,0.611,0.544,0.155,-0.701,-0.077
819,0.051,-0.477,-0.527,0.212,0.289,-0.502,0.239,0.343,0.688,0.570,0.612,0.546,0.157,-0.699,-0.077
820,0.058,-0.471,-0.527,0.206,0.293,-0.499,0.238,0.341,0.686,0.569,0.613,0.546,0.154,-0.696,-0.081
821,0.057,-0.466,-0.522,0.203,0.290,-0.494,0.235,0.338,0.685,0.568,0.612,0.545,0.153,-0.686,-0.082
822,0.055,-0.462,-0.517,0.203,0.286,-0.489,0.230,0.335,0.686,0.568,0.610,0.544,0.158,-0.683,-0.080
823,0.062,-0.456,-0.517,0.196,0.290,-0.486,0.227,0.339,0.685,0.570,0.613,0.546,0.160,-0.687,-0.081
824,0.058,-0.459,-0.516,0.200,0.287,-0.487,0.231,0.343,0.689,0.571,0.614,0.548,0.158,-0.682,-0.083
825,0.053,-0.465,-0.518,0.205,0.286,-0.491,0.239,0.343,0.689,0.569,0.613,0.547,0.157,-0.684,-0.083
826,0.049,-0.462,-0.510,0.206,0.280,-0.486,0.238,0.343,0.690,0.569,0.614,0.547,0.158,-0.684,-0.084
827,0.043,-0.459,-0.501,0.207,0.272,-0.480,0.234,0.342,0.690,0.568,0.615,0.547,0.159,-0.682,-0.083
828,0.041,-0.461,-0.502,0.209,0.272,-0.481,0.240,0.343,0.690,0.569,0.615,0.549,0.160,-0.681,-0.082
829,0.050,-0.461,-0.511,0.205,0.281,-0.486,0.239,0.343,0.691,0.570,0.614,0.547,0.160,-0.682,-0.083
830,0.064,-0.462,-0.525,0.198,0.295,-0.494,0.234,0.341,0.689,0.569,0.613,0.545,0.161,-0.692,-0.084
831,0.065,-0.470,-0.534,0.202,0.299,-0.502,0.234,0.341,0.691,0.570,0.613,0.545,0.161,-0.692,-0.083
832,0.060,-0.477,-0.536,0.208,0.298,-0.507,0.237,0.342,0.691,0.570,0.614,0.545,0.162,-0.694,-0.079
833,0.052,-0.480,-0.531,0.213,0.292,-0.506,0.237,0.342,0.693,0.571,0.612,0.545,0.162,-0.698,-0.080
834,0.051,-0.477,-0.528,0.212,0.289,-0.503,0.235,0.340,0.694,0.572,0.612,0.545,0.162,-0.697,-0.080
835,0.059,-0.474,-0.533,0.207,0.296,-0.503,0.235,0.343,0.692,0.572,0.613,0.545,0.163,-0.699,-0.081
836,0.058,-0.484,-0.541,0.212,0.300,-0.512,0.239,0.347,0.697,0.576,0.615,0.546,0.160,-0.701,-0.082
837,0.056,-0.489,-0.544,0.216,0.300,-0.517,0.238,0.345,0.695,0.575,0.617,0.547,0.159,-0.708,-0.080
838,0.050,-0.483,-0.532,0.216,0.291,-0.508,0.236,0.347,0.698,0.578,0.619,0.548,0.160,-0.704,-0.082
839,0.043,-0.480,-0.522,0.218,0.282,-0.501,0.243,0.354,0.704,0.584,0.622,0.550,0.161,-0.696,-0.085
840,0.051,-0.475,-0.526,0.211,0.289,-0.501,0.238,0.347,0.696,0.578,0.616,0.547,0.162,-0.698,-0.083
841,0.057,-0.468,-0.523,0.204,0.290,-0.495,0.235,0.342,0.703,0.581,0.617,0.547,0.163,-0.693,-0.085
842,0.051,-0.464,-0.515,0.205,0.283,-0.489,0.234,0.344,0.700,0.579,0.616,0.544,0.160,-0.685,-0.085
843,0.048,-0.465,-0.512,0.208,0.280,-0.488,0.231,0.345,0.692,0.573,0.613,0.544,0.157,-0.686,-0.085
844,0.046,-0.465,-0.511,0.208,0.279,-0.488,0.237,0.345,0.700,0.578,0.617,0.547,0.159,-0.687,-0.086
845,0.049,-0.464,-0.512,0.206,0.281,-0.488,0.236,0.345,0.700,0.578,0.615,0.543,0.158,-0.687,-0.085
846,0.056,-0.454,-0.509,0.198,0.282,-0.481,0.231,0.344,0.696,0.575,0.614,0.542,0.159,-0.686,-0.086
847,0.057,-0.446,-0.502,0.194,0.280,-0.474,0.228,0.342,0.693,0.574,0.612,0.540,0.162,-0.681,-0.087
848,0.055,-0.448,-0.501,0.196,0.279,-0.474,0.229,0.342,0.697,0.575,0.613,0.539,0.162,-0.677,-0.088
849,0.051,-0.448,-0.499,0.197,0.276,-0.473,0.233,0.343,0.698,0.578,0.615,0.540,0.159,-0.677,-0.088
850,0.051,-0.453,-0.503,0.200,0.277,-0.478,0.234,0.344,0.697,0.578,0.613,0.539,0.160,-0.682,-0.089
851,0.058,-0.458,-0.515,0.199,0.287,-0.486,0.235,0.344,0.697,0.576,0.610,0.537,0.160,-0.686,-0.089
852,0.059,-0.464,-0.522,0.202,0.290,-0.492,0.236,0.344,0.697,0.576,0.610,0.536,0.151,-0.690,-0.090
853,0.055,-0.468,-0.522,0.206,0.289,-0.495,0.234,0.343,0.696,0.574,0.610,0.536,0.149,-0.693,-0.089
854,0.054,-0.465,-0.517,0.204,0.286,-0.491,0.234,0.341,0.696,0.574,0.608,0.536,0.150,-0.686,-0.089
855,0.059,-0.459,-0.517,0.199,0.288,-0.487,0.236,0.342,0.697,0.575,0.609,0.536,0.151,-0.682,-0.090
856,0.053,-0.472,-0.524,0.208,0.289,-0.498,0.238,0.347,0.701,0.578,0.612,0.538,0.151,-0.692,-0.087
857,0.046,-0.483,-0.529,0.217,0.288,-0.506,0.240,0.349,0.702,0.581,0.614,0.541,0.150,-0.699,-0.085
858,0.052,-0.477,-0.529,0.212,0.290,-0.503,0.236,0.349,0.701,0.583,0.613,0.542,0.152,-0.698,-0.086
859,0.056,-0.475,-0.530,0.208,0.293,-0.502,0.237,0.349,0.702,0.584,0.613,0.542,0.156,-0.697,-0.086
860,0.055,-0.471,-0.526,0.207,0.291,-0.498,0.238,0.346,0.698,0.581,0.611,0.541,0.157,-0.694,-0.086
861,0.055,-0.463,-0.517,0.203,0.286,-0.490,0.239,0.345,0.697,0.580,0.610,0.539,0.157,-0.688,-0.086
862,0.055,-0.458,-0.512,0.201,0.283,-0.485,0.236,0.343,0.697,0.579,0.610,0.539,0.160,-0.683,-0.086
863,0.053,-0.458,-0.510,0.202,0.282,-0.484,0.233,0.340,0.694,0.578,0.608,0.540,0.158,-0.685,-0.085
864,0.054,-0.459,-0.512,0.202,0.283,-0.485,0.235,0.342,0.696,0.580,0.610,0.542,0.158,-0.683,-0.086
865,0.059,-0.458,-0.516,0.199,0.288,-0.487,0.234,0.342,0.695,0.581,0.611,0.543,0.158,-0.683,-0.087
866,0.065,-0.449,-0.513,0.192,0.289,-0.481,0.235,0.338,0.692,0.578,0.611,0.542,0.157,-0.682,-0.088
867,0.062,-0.446,-0.507,0.191,0.285,-0.476,0.234,0.337,0.690,0.577,0.611,0.541,0.159,-0.677,-0.089
868,0.063,-0.448,-0.510,0.192,0.286,-0.478,0.233,0.339,0.690,0.578,0.612,0.542,0.161,-0.680,-0.088
869,0.062,-0.448,-0.509,0.192,0.286,-0.479,0.233,0.339,0.690,0.578,0.611,0.545,0.163,-0.683,-0.086
870,0.058,-0.453,-0.509,0.197,0.284,-0.481,0.233,0.338,0.689,0.579,0.611,0.545,0.160,-0.680,-0.087
871,0.058,-0.457,-0.514,0.199,0.286,-0.485,0.236,0.339,0.692,0.582,0.614,0.545,0.159,-0.683,-0.088
872,0.061,-0.462,-0.522,0.200,0.292,-0.492,0.238,0.343,0.690,0.581,0.615,0.546,0.161,-0.690,-0.085
873,0.063,-0.465,-0.527,0.201,0.295,-0.496,0.235,0.339,0.689,0.577,0.613,0.544,0.162,-0.692,-0.085
874,0.059,-0.465,-0.524,0.202,0.292,-0.494,0.234,0.334,0.685,0.577,0.611,0.543,0.163,-0.695,-0.082
875,0.062,-0.460,-0.522,0.198,0.292,-0.491,0.234,0.334,0.685,0.575,0.612,0.542,0.162,-0.692,-0.083
876,0.061,-0.470,-0.531,0.203,0.296,-0.500,0.234,0.338,0.691,0.579,0.614,0.544,0.162,-0.694,-0.082
877,0.059,-0.479,-0.537,0.209,0.298,-0.508,0.239,0.341,0.693,0.580,0.616,0.546,0.162,-0.699,-0.081
878,0.061,-0.471,-0.532,0.204,0.297,-0.502,0.235,0.337,0.689,0.576,0.615,0.544,0.161,-0.695,-0.082
879,0.064,-0.470,-0.534,0.203,0.299,-0.502,0.233,0.336,0.687,0.578,0.613,0.542,0.159,-0.699,-0.082
880,0.065,-0.468,-0.532,0.201,0.298,-0.500,0.230,0.334,0.686,0.575,0.614,0.543,0.160,-0.693,-0.082
881,0.063,-0.461,-0.523,0.198,0.293,-0.492,0.230,0.335,0.684,0.574,0.615,0.545,0.160,-0.686,-0.082
882,0.059,-0.456,-0.514,0.197,0.287,-0.485,0.234,0.333,0.685,0.574,0.614,0.543,0.158,-0.683,-0.084
883,0.059,-0.457,-0.516,0.198,0.288,-0.486,0.232,0.326,0.680,0.568,0.612,0.542,0.157,-0.683,-0.083
884,0.064,-0.457,-0.519,0.196,0.291,-0.487,0.232,0.327,0.680,0.569,0.612,0.545,0.157,-0.682,-0.083
885,0.065,-0.454,-0.517,0.194,0.291,-0.485,0.232,0.330,0.683,0.573,0.613,0.546,0.159,-0.683,-0.083
886,0.061,-0.452,-0.513,0.195,0.287,-0.482,0.228,0.327,0.679,0.569,0.611,0.544,0.157,-0.680,-0.083
887,0.056,-0.448,-0.503,0.195,0.280,-0.476,0.229,0.323,0.676,0.567,0.611,0.544,0.158,-0.673,-0.083
888,0.056,-0.453,-0.507,0.198,0.281,-0.479,0.228,0.321,0.673,0.565,0.612,0.544,0.159,-0.681,-0.082
889,0.059,-0.454,-0.512,0.197,0.286,-0.483,0.228,0.321,0.674,0.566,0.613,0.544,0.155,-0.684,-0.083
890,0.055,-0.458,-0.512,0.201,0.284,-0.485,0.236,0.326,0.678,0.570,0.615,0.545,0.155,-0.681,-0.083
891,0.053,-0.469,-0.522,0.207,0.288,-0.495,0.226,0.321,0.670,0.566,0.615,0.544,0.155,-0.691,-0.080
892,0.057,-0.472,-0.527,0.207,0.292,-0.500,0.228,0.324,0.672,0.568,0.618,0.546,0.157,-0.696,-0.077
893,0.060,-0.468,-0.528,0.203,0.294,-0.498,0.234,0.327,0.676,0.568,0.619,0.548,0.160,-0.690,-0.079
894,0.058,-0.469,-0.526,0.205,0.292,-0.497,0.234,0.322,0.677,0.570,0.619,0.547,0.159,-0.691,-0.081
895,0.057,-0.467,-0.523,0.204,0.290,-0.495,0.234,0.322,0.678,0.571,0.620,0.550,0.158,-0.698,-0.081
896,0.065,-0.472,-0.537,0.203,0.301,-0.505,0.225,0.318,0.670,0.565,0.617,0.547,0.159,-0.705,-0.076
897,0.070,-0.483,-0.553,0.205,0.312,-0.518,0.234,0.321,0.673,0.567,0.618,0.548,0.157,-0.706,-0.076
898,0.065,-0.481,-0.545,0.207,0.305,-0.513,0.234,0.322,0.671,0.566,0.618,0.550,0.154,-0.703,-0.077
899,0.053,-0.482,-0.534,0.213,0.294,-0.508,0.230,0.317,0.668,0.565,0.619,0.549,0.155,-0.700,-0.077
900,0.052,-0.478,-0.529,0.212,0.291,-0.503,0.234,0.314,0.665,0.561,0.618,0.548,0.155,-0.700,-0.077
901,0.053,-0.467,-0.519,0.206,0.286,-0.493,0.232,0.312,0.663,0.561,0.619,0.547,0.155,-0.693,-0.078
902,0.059,-0.460,-0.517,0.200,0.288,-0.488,0.228,0.314,0.662,0.559,0.617,0.546,0.157,-0.687,-0.078
903,0.061,-0.455,-0.516,0.196,0.289,-0.486,0.227,0.311,0.662,0.556,0.616,0.547,0.158,-0.690,-0.077
904,0.059,-0.455,-0.513,0.197,0.287,-0.484,0.230,0.309,0.661,0.559,0.618,0.547,0.157,-0.690,-0.076
905,0.060,-0.458,-0.517,0.198,0.289,-0.488,0.228,0.307,0.651,0.555,0.615,0.543,0.154,-0.689,-0.076
906,0.060,-0.454,-0.513,0.196,0.287,-0.483,0.226,0.304,0.653,0.553,0.614,0.541,0.156,-0.680,-0.076
907,0.058,-0.448,-0.505,0.194,0.282,-0.476,0.221,0.304,0.656,0.551,0.612,0.542,0.157,-0.674,-0.077
908,0.053,-0.451,-0.502,0.198,0.278,-0.476,0.226,0.304,0.652,0.550,0.611,0.542,0.154,-0.679,-0.078
909,0.051,-0.454,-0.503,0.201,0.277,-0.478,0.229,0.303,0.651,0.550,0.611,0.543,0.155,-0.680,-0.076
910,0.058,-0.455,-0.511,0.198,0.284,-0.483,0.223,0.300,0.649,0.549,0.610,0.542,0.157,-0.686,-0.074
911,0.064,-0.455,-0.518,0.195,0.291,-0.486,0.222,0.301,0.650,0.551,0.612,0.543,0.158,-0.692,-0.074
912,0.061,-0.464,-0.525,0.201,0.293,-0.494,0.223,0.301,0.648,0.550,0.611,0.541,0.156,-0.693,-0.073
913,0.055,-0.469,-0.523,0.206,0.289,-0.496,0.225,0.302,0.648,0.549,0.613,0.540,0.153,-0.695,-0.074
914,0.054,-0.468,-0.521,0.205,0.288,-0.494,0.226,0.302,0.648,0.549,0.612,0.542,0.154,-0.689,-0.073
915,0.062,-0.465,-0.527,0.201,0.295,-0.495,0.225,0.298,0.643,0.546,0.609,0.540,0.159,-0.688,-0.071
916,0.065,-0.470,-0.534,0.202,0.299,-0.502,0.226,0.298,0.644,0.546,0.610,0.542,0.159,-0.696,-0.070
917,0.061,-0.486,-0.547,0.211,0.305,-0.517,0.226,0.297,0.644,0.546,0.612,0.541,0.152,-0.705,-0.069
918,0.059,-0.482,-0.540,0.210,0.300,-0.511,0.223,0.293,0.641,0.544,0.610,0.540,0.151,-0.703,-0.069
919,0.058,-0.475,-0.531,0.208,0.294,-0.503,0.225,0.293,0.639,0.544,0.607,0.540,0.152,-0.702,-0.070
920,0.055,-0.474,-0.528,0.209,0.292,-0.501,0.224,0.290,0.637,0.542,0.605,0.541,0.152,-0.700,-0.069
921,0.053,-0.467,-0.520,0.206,0.287,-0.493,0.222,0.288,0.634,0.540,0.605,0.540,0.152,-0.688,-0.070
922,0.054,-0.461,-0.514,0.203,0.284,-0.487,0.221,0.286,0.633,0.540,0.607,0.540,0.152,-0.685,-0.069
923,0.058,-0.458,-0.515,0.200,0.286,-0.486,0.216,0.283,0.630,0.536,0.606,0.540,0.152,-0.689,-0.069
924,0.059,-0.459,-0.517,0.200,0.288,-0.488,0.213,0.284,0.631,0.537,0.607,0.539,0.151,-0.692,-0.069
925,0.058,-0.461,-0.518,0.201,0.288,-0.489,0.217,0.286,0.634,0.538,0.609,0.544,0.153,-0.690,-0.068
926,0.062,-0.458,-0.519,0.197,0.291,-0.488,0.215,0.280,0.627,0.533,0.605,0.543,0.154,-0.685,-0.069
927,0.066,-0.449,-0.513,0.191,0.290,-0.481,0.214,0.279,0.626,0.530,0.603,0.542,0.154,-0.677,-0.069
928,0.062,-0.450,-0.511,0.194,0.287,-0.480,0.212,0.280,0.627,0.528,0.605,0.543,0.156,-0.679,-0.068
929,0.059,-0.452,-0.510,0.195,0.285,-0.481,0.210,0.277,0.625,0.525,0.604,0.543,0.156,-0.686,-0.066
930,0.060,-0.457,-0.516,0.198,0.288,-0.486,0.211,0.276,0.623,0.524,0.606,0.544,0.158,-0.688,-0.066
931,0.060,-0.464,-0.523,0.201,0.292,-0.493,0.213,0.274,0.621,0.524,0.606,0.544,0.157,-0.690,-0.065
932,0.059,-0.469,-0.527,0.204,0.293,-0.497,0.216,0.278,0.624,0.528,0.608,0.548,0.155,-0.694,-0.065
933,0.061,-0.470,-0.531,0.204,0.296,-0.500,0.214,0.278,0.623,0.526,0.608,0.548,0.160,-0.694,-0.064
934,0.059,-0.468,-0.526,0.203,0.293,-0.497,0.214,0.273,0.619,0.524,0.605,0.545,0.159,-0.689,-0.062
935,0.058,-0.469,-0.526,0.204,0.292,-0.497,0.209,0.270,0.615,0.522,0.603,0.544,0.154,-0.698,-0.063
936,0.059,-0.471,-0.530,0.205,0.295,-0.500,0.209,0.269,0.614,0.521,0.604,0.543,0.155,-0.700,-0.063
937,0.061,-0.482,-0.542,0.209,0.302,-0.512,0.215,0.273,0.617,0.523,0.608,0.546,0.155,-0.702,-0.060
938,0.061,-0.481,-0.542,0.209,0.302,-0.511,0.214,0.270,0.616,0.526,0.607,0.545,0.157,-0.704,-0.060
939,0.050,-0.475,-0.523,0.212,0.287,-0.499,0.218,0.270,0.614,0.524,0.608,0.544,0.154,-0.697,-0.060
940,0.044,-0.472,-0.515,0.213,0.280,-0.494,0.216,0.271,0.617,0.526,0.610,0.546,0.155,-0.698,-0.060
941,0.050,-0.463,-0.512,0.206,0.281,-0.488,0.213,0.267,0.617,0.527,0.609,0.545,0.159,-0.694,-0.060
942,0.051,-0.459,-0.508,0.203,0.280,-0.483,0.211,0.265,0.609,0.519,0.606,0.543,0.157,-0.689,-0.059
943,0.050,-0.459,-0.508,0.203,0.280,-0.483,0.209,0.264,0.609,0.522,0.606,0.544,0.154,-0.691,-0.059
944,0.052,-0.461,-0.512,0.203,0.282,-0.486,0.211,0.262,0.607,0.518,0.606,0.542,0.155,-0.691,-0.058
945,0.053,-0.459,-0.512,0.202,0.283,-0.485,0.211,0.260,0.604,0.514,0.605,0.542,0.155,-0.689,-0.059
946,0.053,-0.450,-0.502,0.198,0.278,-0.476,0.209,0.262,0.605,0.515,0.605,0.541,0.154,-0.680,-0.060
947,0.050,-0.447,-0.495,0.198,0.273,-0.471,0.208,0.259,0.602,0.510,0.602,0.537,0.155,-0.675,-0.059
948,0.045,-0.451,-0.496,0.202,0.271,-0.473,0.206,0.253,0.600,0.510,0.600,0.538,0.153,-0.677,-0.059
949,0.050,-0.451,-0.501,0.200,0.276,-0.476,0.206,0.252,0.599,0.511,0.600,0.538,0.152,-0.681,-0.059
950,0.056,-0.453,-0.508,0.198,0.282,-0.480,0.206,0.253,0.596,0.505,0.598,0.538,0.153,-0.687,-0.058
951,0.056,-0.459,-0.513,0.201,0.284,-0.486,0.206,0.256,0.599,0.509,0.601,0.540,0.151,-0.687,-0.057
952,0.053,-0.465,-0.518,0.205,0.286,-0.491,0.207,0.257,0.601,0.511,0.600,0.540,0.150,-0.690,-0.056
953,0.049,-0.468,-0.516,0.208,0.283,-0.492,0.210,0.257,0.600,0.512,0.601,0.542,0.150,-0.690,-0.057
954,0.047,-0.469,-0.515,0.210,0.281,-0.492,0.206,0.256,0.603,0.513,0.603,0.542,0.150,-0.690,-0.058
955,0.050,-0.467,-0.516,0.208,0.283,-0.491,0.204,0.254,0.599,0.509,0.599,0.542,0.149,-0.690,-0.058
956,0.051,-0.469,-0.519,0.208,0.285,-0.494,0.207,0.249,0.596,0.509,0.600,0.544,0.148,-0.690,-0.057
957,0.048,-0.479,-0.526,0.214,0.287,-0.502,0.211,0.253,0.602,0.512,0.603,0.546,0.148,-0.697,-0.056
958,0.047,-0.482,-0.529,0.217,0.288,-0.505,0.212,0.256,0.603,0.515,0.604,0.548,0.148,-0.698,-0.056
959,0.046,-0.482,-0.527,0.217,0.287,-0.504,0.205,0.248,0.597,0.511,0.602,0.546,0.149,-0.700,-0.055
960,0.045,-0.476,-0.521,0.214,0.283,-0.499,0.206,0.253,0.601,0.513,0.604,0.547,0.149,-0.702,-0.057
961,0.051,-0.470,-0.519,0.209,0.285,-0.495,0.207,0.249,0.597,0.511,0.603,0.548,0.150,-0.698,-0.057
962,0.053,-0.462,-0.514,0.204,0.284,-0.488,0.205,0.246,0.592,0.507,0.600,0.546,0.148,-0.689,-0.057
963,0.049,-0.460,-0.508,0.205,0.279,-0.484,0.208,0.253,0.599,0.510,0.603,0.547,0.149,-0.687,-0.059
964,0.046,-0.466,-0.511,0.209,0.279,-0.488,0.208,0.246,0.594,0.506,0.600,0.546,0.148,-0.695,-0.058
965,0.046,-0.466,-0.512,0.209,0.280,-0.489,0.207,0.246,0.593,0.504,0.599,0.547,0.147,-0.692,-0.057
966,0.046,-0.459,-0.504,0.206,0.276,-0.482,0.204,0.249,0.594,0.506,0.601,0.550,0.152,-0.683,-0.055
967,0.047,-0.451,-0.497,0.201,0.272,-0.473,0.203,0.245,0.591,0.502,0.600,0.549,0.154,-0.681,-0.055
968,0.052,-0.450,-0.502,0.198,0.277,-0.476,0.202,0.243,0.587,0.498,0.596,0.545,0.151,-0.682,-0.055
969,0.053,-0.454,-0.506,0.199,0.281,-0.480,0.197,0.241,0.586,0.497,0.597,0.546,0.153,-0.682,-0.053
970,0.048,-0.462,-0.509,0.206,0.279,-0.485,0.200,0.243,0.588,0.497,0.598,0.548,0.152,-0.685,-0.053
971,0.047,-0.466,-0.512,0.208,0.280,-0.489,0.205,0.246,0.590,0.499,0.600,0.548,0.154,-0.688,-0.051
972,0.051,-0.468,-0.518,0.208,0.285,-0.493,0.204,0.246,0.590,0.500,0.600,0.550,0.156,-0.691,-0.050
973,0.052,-0.472,-0.524,0.209,0.289,-0.498,0.208,0.244,0.590,0.499,0.598,0.549,0.145,-0.694,-0.052
974,0.054,-0.471,-0.525,0.208,0.290,-0.498,0.203,0.239,0.590,0.500,0.597,0.545,0.145,-0.695,-0.054
975,0.051,-0.469,-0.519,0.209,0.285,-0.494,0.202,0.243,0.584,0.495,0.595,0.546,0.148,-0.696,-0.053
976,0.047,-0.473,-0.519,0.212,0.283,-0.496,0.209,0.243,0.586,0.495,0.597,0.548,0.148,-0.695,-0.051
977,0.045,-0.484,-0.529,0.218,0.287,-0.506,0.208,0.242,0.588,0.497,0.598,0.547,0.147,-0.703,-0.049
978,0.041,-0.488,-0.529,0.223,0.285,-0.509,0.209,0.243,0.587,0.498,0.600,0.547,0.146,-0.708,-0.048
979,0.043,-0.484,-0.526,0.220,0.285,-0.505,0.203,0.244,0.588,0.497,0.599,0.547,0.149,-0.707,-0.048
980,0.043,-0.475,-0.518,0.215,0.281,-0.496,0.206,0.245,0.588,0.497,0.598,0.547,0.147,-0.700,-0.051
981,0.047,-0.468,-0.514,0.209,0.281,-0.491,0.210,0.241,0.586,0.495,0.596,0.545,0.148,-0.693,-0.050
982,0.048,-0.464,-0.511,0.207,0.280,-0.487,0.202,0.237,0.583,0.493,0.594,0.543,0.149,-0.699,-0.051
983,0.046,-0.461,-0.506,0.206,0.277,-0.483,0.202,0.234,0.580,0.494,0.594,0.543,0.149,-0.698,-0.050
984,0.050,-0.463,-0.511,0.205,0.281,-0.487,0.199,0.234,0.579,0.493,0.593,0.545,0.149,-0.688,-0.049
985,0.051,-0.469,-0.519,0.208,0.285,-0.494,0.195,0.231,0.579,0.492,0.593,0.544,0.151,-0.693,-0.049
986,0.055,-0.463,-0.517,0.203,0.286,-0.490,0.193,0.231,0.574,0.487,0.592,0.541,0.152,-0.696,-0.049
987,0.053,-0.451,-0.503,0.198,0.279,-0.477,0.198,0.235,0.579,0.490,0.594,0.544,0.155,-0.688,-0.051
988,0.050,-0.451,-0.500,0.200,0.275,-0.475,0.203,0.232,0.579,0.489,0.593,0.545,0.154,-0.686,-0.050
989,0.048,-0.454,-0.501,0.202,0.275,-0.477,0.204,0.234,0.579,0.488,0.595,0.547,0.148,-0.685,-0.050
990,0.045,-0.457,-0.501,0.204,0.274,-0.479,0.207,0.236,0.580,0.489,0.597,0.549,0.148,-0.685,-0.050
991,0.046,-0.467,-0.512,0.209,0.280,-0.489,0.200,0.232,0.576,0.486,0.594,0.545,0.150,-0.691,-0.046
992,0.049,-0.473,-0.520,0.211,0.285,-0.497,0.199,0.233,0.577,0.485,0.594,0.545,0.150,-0.695,-0.045
993,0.042,-0.473,-0.514,0.214,0.279,-0.494,0.203,0.232,0.579,0.485,0.595,0.545,0.149,-0.692,-0.046
994,0.042,-0.470,-0.511,0.214,0.277,-0.491,0.201,0.233,0.586,0.491,0.597,0.546,0.152,-0.693,-0.045
995,0.049,-0.468,-0.516,0.209,0.282,-0.492,0.205,0.235,0.579,0.488,0.596,0.546,0.154,-0.695,-0.045
996,0.053,-0.473,-0.526,0.209,0.290,-0.500,0.203,0.234,0.576,0.486,0.596,0.545,0.151,-0.702,-0.044
997,0.053,-0.480,-0.533,0.212,0.293,-0.506,0.200,0.235,0.579,0.492,0.598,0.546,0.150,-0.706,-0.045
998,0.049,-0.482,-0.530,0.216,0.290,-0.506,0.201,0.235,0.578,0.490,0.598,0.545,0.151,-0.704,-0.043
999,0.046,-0.481,-0.526,0.216,0.286,-0.503,0.199,0.233,0.580,0.491,0.597,0.545,0.155,-0.703,-0.041
1000,0.042,-0.476,-0.517,0.216,0.280,-0.497,0.198,0.231,0.576,0.490,0.595,0.545,0.155,-0.698,-0.042
1001,0.043,-0.470,-0.512,0.213,0.278,-0.491,0.198,0.230,0.575,0.488,0.594,0.543,0.151,-0.696,-0.043
1002,0.046,-0.464,-0.509,0.208,0.278,-0.487,0.195,0.226,0.573,0.485,0.593,0.542,0.152,-0.694,-0.044
1003,0.044,-0.461,-0.505,0.207,0.276,-0.483,0.195,0.225,0.573,0.483,0.594,0.543,0.152,-0.693,-0.045
1004,0.044,-0.463,-0.506,0.208,0.276,-0.484,0.196,0.229,0.574,0.487,0.594,0.543,0.151,-0.693,-0.045
1005,0.046,-0.465,-0.511,0.208,0.279,-0.488,0.195,0.227,0.574,0.485,0.592,0.541,0.152,-0.693,-0.044
1006,0.048,-0.459,-0.506,0.205,0.277,-0.482,0.192,0.222,0.574,0.484,0.591,0.541,0.149,-0.690,-0.046
1007,0.046,-0.454,-0.500,0.203,0.274,-0.477,0.187,0.220,0.570,0.483,0.589,0.539,0.149,-0.689,-0.048
1008,0.046,-0.452,-0.497,0.202,0.272,-0.474,0.190,0.221,0.566,0.479,0.589,0.538,0.147,-0.687,-0.049
1009,0.046,-0.452,-0.497,0.202,0.272,-0.474,0.194,0.223,0.565,0.481,0.592,0.539,0.146,-0.683,-0.049
1010,0.049,-0.456,-0.504,0.203,0.277,-0.480,0.191,0.221,0.569,0.482,0.589,0.538,0.147,-0.688,-0.046
1011,0.049,-0.460,-0.509,0.205,0.280,-0.484,0.197,0.225,0.571,0.483,0.590,0.541,0.146,-0.686,-0.046
1012,0.048,-0.467,-0.514,0.209,0.281,-0.490,0.200,0.229,0.574,0.486,0.596,0.541,0.144,-0.692,-0.048
1013,0.044,-0.470,-0.514,0.212,0.280,-0.492,0.195,0.225,0.571,0.483,0.591,0.540,0.145,-0.695,-0.044
1014,0.036,-0.475,-0.510,0.218,0.274,-0.492,0.198,0.225,0.569,0.483,0.591,0.540,0.143,-0.691,-0.044
1015,0.034,-0.472,-0.505,0.218,0.270,-0.488,0.202,0.225,0.573,0.484,0.594,0.540,0.140,-0.691,-0.047
1016,0.037,-0.474,-0.511,0.218,0.275,-0.493,0.199,0.226,0.571,0.483,0.593,0.540,0.141,-0.695,-0.045
1017,0.044,-0.480,-0.524,0.217,0.284,-0.502,0.197,0.224,0.572,0.486,0.595,0.540,0.141,-0.703,-0.046
1018,0.045,-0.481,-0.526,0.217,0.286,-0.503,0.204,0.227,0.572,0.485,0.596,0.541,0.139,-0.707,-0.046
1019,0.043,-0.487,-0.529,0.222,0.286,-0.508,0.198,0.229,0.569,0.482,0.594,0.539,0.138,-0.706,-0.044
1020,0.043,-0.480,-0.523,0.217,0.283,-0.501,0.196,0.218,0.566,0.480,0.591,0.537,0.138,-0.701,-0.045
1021,0.044,-0.472,-0.515,0.213,0.280,-0.494,0.200,0.218,0.565,0.477,0.588,0.535,0.139,-0.696,-0.045
1022,0.047,-0.468,-0.514,0.209,0.281,-0.491,0.195,0.220,0.568,0.479,0.589,0.539,0.141,-0.693,-0.045
1023,0.042,-0.467,-0.508,0.211,0.276,-0.488,0.193,0.220,0.566,0.480,0.592,0.539,0.140,-0.691,-0.047
1024,0.039,-0.469,-0.507,0.214,0.274,-0.488,0.196,0.221,0.566,0.479,0.591,0.538,0.139,-0.690,-0.046
1025,0.044,-0.469,-0.513,0.212,0.279,-0.491,0.198,0.219,0.566,0.478,0.590,0.539,0.141,-0.691,-0.047
1026,0.044,-0.466,-0.510,0.209,0.278,-0.488,0.195,0.218,0.564,0.477,0.589,0.537,0.141,-0.693,-0.048
1027,0.042,-0.456,-0.497,0.206,0.270,-0.476,0.195,0.219,0.568,0.481,0.589,0.538,0.141,-0.686,-0.049
1028,0.037,-0.456,-0.493,0.208,0.266,-0.474,0.193,0.220,0.564,0.479,0.590,0.537,0.140,-0.685,-0.049
1029,0.037,-0.460,-0.496,0.210,0.267,-0.478,0.192,0.222,0.566,0.480,0.591,0.538,0.139,-0.687,-0.049
1030,0.038,-0.461,-0.499,0.210,0.269,-0.480,0.197,0.221,0.567,0.481,0.590,0.539,0.141,-0.689,-0.048
1031,0.037,-0.466,-0.502,0.213,0.270,-0.484,0.198,0.221,0.565,0.480,0.591,0.538,0.141,-0.694,-0.046
1032,0.042,-0.469,-0.511,0.213,0.277,-0.490,0.196,0.223,0.568,0.482,0.592,0.538,0.140,-0.697,-0.046
1033,0.044,-0.471,-0.515,0.212,0.280,-0.493,0.196,0.224,0.568,0.481,0.590,0.536,0.138,-0.697,-0.047
1034,0.041,-0.470,-0.510,0.214,0.276,-0.490,0.195,0.223,0.568,0.479,0.588,0.536,0.137,-0.696,-0.045
1035,0.043,-0.465,-0.507,0.210,0.275,-0.485,0.194,0.221,0.566,0.477,0.587,0.535,0.136,-0.696,-0.044
1036,0.043,-0.470,-0.512,0.213,0.278,-0.491,0.198,0.223,0.567,0.478,0.588,0.536,0.136,-0.696,-0.043
1037,0.042,-0.477,-0.519,0.217,0.281,-0.498,0.199,0.222,0.570,0.480,0.589,0.536,0.137,-0.698,-0.044
1038,0.044,-0.479,-0.522,0.217,0.283,-0.501,0.198,0.224,0.570,0.479,0.588,0.537,0.137,-0.699,-0.042
1039,0.042,-0.486,-0.527,0.222,0.285,-0.507,0.191,0.220,0.563,0.475,0.587,0.538,0.138,-0.709,-0.037
1040,0.040,-0.480,-0.519,0.220,0.280,-0.499,0.192,0.213,0.560,0.473,0.585,0.536,0.137,-0.706,-0.041
1041,0.043,-0.467,-0.509,0.211,0.277,-0.488,0.198,0.218,0.565,0.474,0.586,0.538,0.136,-0.693,-0.043
1042,0.046,-0.460,-0.506,0.206,0.277,-0.483,0.190,0.217,0.563,0.473,0.586,0.538,0.141,-0.692,-0.042
1043,0.046,-0.459,-0.505,0.205,0.276,-0.482,0.191,0.216,0.562,0.472,0.587,0.539,0.142,-0.690,-0.042
1044,0.043,-0.462,-0.505,0.208,0.275,-0.483,0.193,0.219,0.565,0.477,0.589,0.543,0.144,-0.690,-0.041
1045,0.045,-0.462,-0.507,0.208,0.277,-0.484,0.189,0.218,0.564,0.477,0.590,0.543,0.144,-0.692,-0.040
1046,0.048,-0.455,-0.502,0.203,0.275,-0.478,0.191,0.222,0.565,0.476,0.591,0.545,0.145,-0.688,-0.043
1047,0.045,-0.448,-0.493,0.201,0.270,-0.470,0.197,0.221,0.562,0.475,0.589,0.543,0.146,-0.684,-0.045
1048,0.049,-0.448,-0.495,0.199,0.273,-0.471,0.199,0.218,0.562,0.474,0.589,0.544,0.145,-0.684,-0.046
1049,0.054,-0.448,-0.501,0.196,0.278,-0.474,0.193,0.215,0.561,0.475,0.591,0.545,0.146,-0.687,-0.046
1050,0.051,-0.454,-0.504,0.201,0.279,-0.479,0.193,0.216,0.561,0.475,0.590,0.545,0.148,-0.691,-0.044
1051,0.047,-0.460,-0.506,0.205,0.277,-0.482,0.197,0.219,0.565,0.478,0.590,0.547,0.147,-0.693,-0.044
1052,0.044,-0.466,-0.509,0.209,0.277,-0.487,0.197,0.216,0.561,0.476,0.591,0.545,0.143,-0.694,-0.043
1053,0.046,-0.468,-0.513,0.209,0.281,-0.490,0.196,0.221,0.565,0.476,0.592,0.545,0.145,-0.696,-0.043
1054,0.048,-0.465,-0.511,0.207,0.280,-0.488,0.197,0.223,0.566,0.476,0.591,0.544,0.144,-0.696,-0.043
1055,0.045,-0.462,-0.506,0.207,0.276,-0.484,0.198,0.221,0.563,0.476,0.591,0.543,0.141,-0.695,-0.044
1056,0.049,-0.467,-0.515,0.208,0.282,-0.491,0.195,0.221,0.566,0.477,0.591,0.544,0.144,-0.698,-0.041
1057,0.051,-0.475,-0.526,0.211,0.288,-0.501,0.196,0.220,0.566,0.477,0.591,0.542,0.142,-0.700,-0.040
1058,0.049,-0.477,-0.525,0.213,0.287,-0.501,0.196,0.220,0.564,0.478,0.589,0.539,0.139,-0.703,-0.042
1059,0.045,-0.479,-0.524,0.216,0.285,-0.502,0.198,0.220,0.565,0.477,0.590,0.541,0.138,-0.706,-0.041
1060,0.044,-0.474,-0.518,0.214,0.282,-0.496,0.196,0.220,0.563,0.474,0.589,0.539,0.136,-0.702,-0.043
1061,0.045,-0.465,-0.510,0.209,0.278,-0.487,0.192,0.216,0.562,0.474,0.587,0.537,0.139,-0.696,-0.044
1062,0.047,-0.459,-0.506,0.205,0.277,-0.482,0.192,0.214,0.560,0.473,0.587,0.537,0.136,-0.689,-0.045
1063,0.043,-0.458,-0.500,0.206,0.272,-0.479,0.195,0.215,0.557,0.473,0.587,0.537,0.135,-0.686,-0.045
1064,0.044,-0.458,-0.501,0.206,0.273,-0.480,0.193,0.214,0.558,0.474,0.587,0.539,0.142,-0.690,-0.041
1065,0.047,-0.460,-0.507,0.206,0.278,-0.483,0.193,0.214,0.558,0.471,0.586,0.537,0.137,-0.691,-0.042
1066,0.045,-0.455,-0.500,0.204,0.273,-0.477,0.195,0.214,0.560,0.471,0.587,0.537,0.134,-0.684,-0.046
1067,0.048,-0.445,-0.493,0.198,0.271,-0.469,0.190,0.208,0.554,0.468,0.584,0.535,0.137,-0.680,-0.045
1068,0.044,-0.444,-0.488,0.199,0.267,-0.466,0.189,0.209,0.560,0.473,0.586,0.539,0.138,-0.679,-0.044
1069,0.045,-0.446,-0.490,0.200,0.269,-0.468,0.190,0.212,0.561,0.476,0.589,0.541,0.140,-0.680,-0.045
1070,0.046,-0.453,-0.498,0.202,0.273,-0.475,0.191,0.210,0.552,0.469,0.588,0.538,0.136,-0.686,-0.043
1071,0.042,-0.460,-0.501,0.208,0.272,-0.480,0.193,0.213,0.556,0.474,0.591,0.542,0.138,-0.687,-0.043
1072,0.041,-0.467,-0.507,0.212,0.275,-0.487,0.190,0.214,0.560,0.474,0.592,0.542,0.140,-0.689,-0.041
1073,0.043,-0.468,-0.509,0.212,0.277,-0.489,0.191,0.211,0.558,0.473,0.589,0.541,0.138,-0.692,-0.041
1074,0.043,-0.469,-0.510,0.212,0.277,-0.489,0.188,0.210,0.556,0.471,0.586,0.540,0.139,-0.692,-0.041
1075,0.044,-0.466,-0.508,0.210,0.277,-0.487,0.188,0.210,0.557,0.472,0.588,0.540,0.139,-0.691,-0.040
1076,0.043,-0.469,-0.511,0.212,0.278,-0.490,0.191,0.215,0.559,0.476,0.591,0.542,0.140,-0.694,-0.040
1077,0.041,-0.478,-0.518,0.218,0.280,-0.498,0.193,0.219,0.560,0.477,0.592,0.543,0.138,-0.700,-0.040
1078,0.038,-0.476,-0.514,0.218,0.277,-0.495,0.196,0.216,0.558,0.478,0.592,0.543,0.137,-0.701,-0.040
1079,0.036,-0.480,-0.515,0.222,0.276,-0.498,0.196,0.217,0.559,0.476,0.592,0.544,0.137,-0.701,-0.038
1080,0.038,-0.476,-0.514,0.218,0.276,-0.495,0.195,0.217,0.560,0.476,0.591,0.544,0.139,-0.698,-0.037
1081,0.043,-0.467,-0.509,0.211,0.277,-0.488,0.185,0.213,0.555,0.473,0.587,0.541,0.142,-0.695,-0.037
1082,0.049,-0.458,-0.506,0.203,0.278,-0.481,0.184,0.211,0.554,0.469,0.586,0.538,0.140,-0.687,-0.042
1083,0.045,-0.454,-0.499,0.203,0.273,-0.476,0.189,0.210,0.554,0.471,0.585,0.539,0.136,-0.683,-0.043
1084,0.046,-0.458,-0.503,0.204,0.275,-0.480,0.184,0.209,0.554,0.472,0.585,0.541,0.137,-0.686,-0.040
1085,0.050,-0.459,-0.508,0.203,0.280,-0.484,0.183,0.209,0.555,0.470,0.586,0.539,0.139,-0.685,-0.040
1086,0.047,-0.457,-0.503,0.204,0.276,-0.480,0.178,0.205,0.552,0.468,0.584,0.537,0.140,-0.683,-0.040
1087,0.049,-0.443,-0.490,0.196,0.270,-0.467,0.180,0.206,0.550,0.468,0.585,0.538,0.146,-0.673,-0.039
1088,0.041,-0.445,-0.485,0.201,0.264,-0.465,0.186,0.210,0.553,0.470,0.586,0.539,0.146,-0.672,-0.041
1089,0.041,-0.448,-0.488,0.203,0.265,-0.469,0.183,0.208,0.552,0.470,0.584,0.538,0.142,-0.676,-0.043
1090,0.050,-0.447,-0.495,0.198,0.273,-0.471,0.190,0.211,0.554,0.472,0.584,0.537,0.138,-0.683,-0.043
1091,0.052,-0.452,-0.503,0.199,0.278,-0.478,0.193,0.210,0.553,0.471,0.584,0.535,0.133,-0.688,-0.042
1092,0.048,-0.459,-0.506,0.204,0.278,-0.482,0.192,0.210,0.552,0.470,0.584,0.536,0.136,-0.690,-0.040
1093,0.044,-0.463,-0.507,0.208,0.276,-0.485,0.189,0.213,0.556,0.474,0.586,0.537,0.137,-0.692,-0.041
1094,0.044,-0.460,-0.504,0.207,0.275,-0.482,0.192,0.210,0.553,0.473,0.585,0.535,0.135,-0.690,-0.041
1095,0.047,-0.458,-0.504,0.204,0.276,-0.480,0.190,0.209,0.552,0.472,0.583,0.535,0.137,-0.695,-0.039
1096,0.046,-0.463,-0.508,0.207,0.278,-0.485,0.189,0.209,0.556,0.474,0.584,0.535,0.134,-0.694,-0.042
1097,0.042,-0.474,-0.515,0.215,0.279,-0.494,0.199,0.215,0.556,0.475,0.586,0.537,0.131,-0.695,-0.041
1098,0.043,-0.471,-0.513,0.214,0.278,-0.492,0.198,0.216,0.555,0.476,0.589,0.540,0.132,-0.698,-0.041
1099,0.038,-0.474,-0.512,0.217,0.275,-0.493,0.197,0.216,0.558,0.477,0.590,0.540,0.134,-0.699,-0.041
1100,0.040,-0.479,-0.517,0.219,0.279,-0.498,0.191,0.214,0.559,0.477,0.589,0.540,0.137,-0.701,-0.037
1101,0.041,-0.465,-0.505,0.211,0.273,-0.484,0.192,0.212,0.556,0.475,0.589,0.541,0.138,-0.692,-0.042
1102,0.040,-0.456,-0.495,0.207,0.268,-0.475,0.194,0.212,0.555,0.475,0.590,0.543,0.140,-0.688,-0.043
1103,0.043,-0.453,-0.496,0.204,0.270,-0.474,0.189,0.209,0.553,0.472,0.588,0.543,0.140,-0.684,-0.042
1104,0.046,-0.454,-0.500,0.203,0.274,-0.476,0.186,0.207,0.551,0.471,0.589,0.540,0.138,-0.684,-0.042
1105,0.043,-0.458,-0.500,0.206,0.272,-0.479,0.188,0.208,0.555,0.474,0.590,0.543,0.140,-0.688,-0.042
1106,0.037,-0.453,-0.489,0.207,0.264,-0.471,0.195,0.212,0.556,0.474,0.592,0.545,0.139,-0.683,-0.042
1107,0.042,-0.446,-0.486,0.201,0.265,-0.466,0.191,0.210,0.554,0.471,0.590,0.543,0.140,-0.681,-0.043
1108,0.051,-0.444,-0.494,0.196,0.273,-0.469,0.186,0.204,0.551,0.466,0.587,0.540,0.141,-0.681,-0.043
1109,0.052,-0.445,-0.496,0.196,0.275,-0.470,0.187,0.205,0.548,0.465,0.587,0.539,0.137,-0.680,-0.042
1110,0.052,-0.448,-0.499,0.197,0.276,-0.473,0.188,0.207,0.551,0.467,0.588,0.540,0.139,-0.682,-0.043
1111,0.053,-0.457,-0.509,0.201,0.281,-0.483,0.190,0.210,0.555,0.469,0.589,0.541,0.139,-0.688,-0.042
1112,0.053,-0.464,-0.517,0.204,0.285,-0.490,0.185,0.208,0.553,0.471,0.588,0.542,0.139,-0.692,-0.040
1113,0.054,-0.465,-0.518,0.204,0.286,-0.491,0.182,0.206,0.552,0.470,0.590,0.543,0.140,-0.692,-0.038
1114,0.054,-0.462,-0.515,0.203,0.284,-0.489,0.189,0.210,0.553,0.471,0.591,0.543,0.140,-0.692,-0.040
1115,0.054,-0.458,-0.512,0.201,0.283,-0.485,0.190,0.209,0.553,0.469,0.589,0.542,0.141,-0.694,-0.041
1116,0.051,-0.462,-0.512,0.204,0.282,-0.486,0.188,0.208,0.553,0.469,0.589,0.542,0.141,-0.699,-0.039
1117,0.041,-0.471,-0.511,0.214,0.276,-0.491,0.194,0.212,0.556,0.474,0.592,0.545,0.139,-0.700,-0.038
1118,0.037,-0.471,-0.508,0.216,0.273,-0.489,0.198,0.216,0.560,0.476,0.595,0.546,0.137,-0.696,-0.039
1119,0.039,-0.471,-0.509,0.215,0.274,-0.490,0.196,0.212,0.556,0.474,0.593,0.546,0.140,-0.698,-0.038
1120,0.038,-0.474,-0.511,0.217,0.275,-0.493,0.195,0.214,0.555,0.472,0.593,0.544,0.139,-0.702,-0.038
1121,0.042,-0.466,-0.508,0.211,0.275,-0.487,0.190,0.212,0.553,0.471,0.592,0.542,0.139,-0.701,-0.037
1122,0.043,-0.456,-0.498,0.205,0.271,-0.477,0.186,0.206,0.550,0.468,0.590,0.540,0.140,-0.694,-0.038
1123,0.040,-0.452,-0.491,0.205,0.266,-0.471,0.191,0.214,0.557,0.472,0.593,0.541,0.142,-0.687,-0.040
1124,0.040,-0.456,-0.494,0.207,0.267,-0.475,0.183,0.208,0.552,0.471,0.590,0.541,0.143,-0.690,-0.037
1125,0.038,-0.462,-0.499,0.210,0.270,-0.480,0.190,0.208,0.550,0.470,0.590,0.539,0.139,-0.687,-0.037
1126,0.040,-0.455,-0.494,0.206,0.268,-0.474,0.191,0.210,0.552,0.470,0.588,0.539,0.139,-0.681,-0.040
1127,0.036,-0.448,-0.483,0.205,0.260,-0.466,0.185,0.207,0.548,0.468,0.586,0.538,0.140,-0.680,-0.040
1128,0.033,-0.448,-0.479,0.207,0.256,-0.464,0.189,0.207,0.551,0.470,0.587,0.536,0.138,-0.679,-0.039
1129,0.037,-0.452,-0.487,0.206,0.263,-0.469,0.186,0.205,0.548,0.467,0.587,0.537,0.138,-0.685,-0.038
1130,0.053,-0.452,-0.504,0.199,0.279,-0.478,0.185,0.205,0.545,0.466,0.583,0.536,0.138,-0.692,-0.040
1131,0.061,-0.453,-0.514,0.195,0.287,-0.483,0.182,0.205,0.546,0.466,0.585,0.539,0.142,-0.694,-0.041
1132,0.054,-0.459,-0.513,0.202,0.284,-0.486,0.190,0.208,0.551,0.470,0.590,0.543,0.141,-0.696,-0.041
1133,0.047,-0.463,-0.509,0.207,0.279,-0.486,0.193,0.208,0.551,0.469,0.590,0.542,0.140,-0.695,-0.040
1134,0.041,-0.463,-0.504,0.210,0.273,-0.483,0.193,0.211,0.546,0.467,0.592,0.543,0.139,-0.695,-0.041
1135,0.043,-0.460,-0.502,0.207,0.273,-0.481,0.192,0.211,0.553,0.469,0.589,0.542,0.139,-0.694,-0.041
1136,0.044,-0.467,-0.510,0.210,0.278,-0.488,0.183,0.206,0.551,0.466,0.586,0.542,0.141,-0.701,-0.038
1137,0.047,-0.473,-0.520,0.212,0.284,-0.497,0.186,0.206,0.548,0.466,0.588,0.541,0.140,-0.703,-0.036
1138,0.043,-0.469,-0.512,0.212,0.279,-0.491,0.195,0.215,0.554,0.469,0.590,0.544,0.140,-0.695,-0.038
1139,0.038,-0.467,-0.504,0.213,0.271,-0.485,0.202,0.217,0.556,0.470,0.592,0.546,0.139,-0.696,-0.041
1140,0.041,-0.468,-0.508,0.212,0.275,-0.488,0.201,0.215,0.555,0.469,0.592,0.545,0.137,-0.696,-0.039
1141,0.048,-0.463,-0.510,0.207,0.279,-0.486,0.194,0.212,0.551,0.467,0.588,0.544,0.139,-0.696,-0.038
1142,0.049,-0.454,-0.502,0.202,0.276,-0.478,0.191,0.207,0.547,0.463,0.584,0.540,0.139,-0.692,-0.040
1143,0.046,-0.451,-0.496,0.202,0.272,-0.473,0.190,0.209,0.549,0.463,0.584,0.541,0.136,-0.687,-0.041
1144,0.046,-0.453,-0.499,0.203,0.273,-0.476,0.188,0.204,0.547,0.463,0.584,0.539,0.136,-0.690,-0.041
1145,0.044,-0.458,-0.501,0.206,0.273,-0.479,0.191,0.201,0.544,0.460,0.583,0.538,0.136,-0.693,-0.039
1146,0.045,-0.450,-0.495,0.202,0.271,-0.472,0.191,0.205,0.550,0.466,0.582,0.537,0.135,-0.688,-0.041
1147,0.048,-0.442,-0.488,0.196,0.268,-0.465,0.188,0.207,0.554,0.468,0.582,0.537,0.137,-0.682,-0.042
1148,0.047,-0.440,-0.486,0.196,0.267,-0.464,0.188,0.209,0.547,0.462,0.582,0.537,0.137,-0.682,-0.042
1149,0.046,-0.440,-0.486,0.196,0.267,-0.463,0.188,0.206,0.548,0.462,0.582,0.535,0.136,-0.681,-0.043
1150,0.044,-0.445,-0.488,0.200,0.267,-0.467,0.190,0.205,0.550,0.465,0.584,0.539,0.140,-0.680,-0.040
1151,0.046,-0.451,-0.496,0.202,0.271,-0.473,0.191,0.207,0.550,0.466,0.587,0.539,0.139,-0.684,-0.039
1152,0.046,-0.458,-0.503,0.205,0.275,-0.480,0.191,0.209,0.552,0.469,0.586,0.538,0.138,-0.690,-0.038
1153,0.047,-0.458,-0.504,0.204,0.276,-0.481,0.190,0.208,0.552,0.467,0.583,0.536,0.138,-0.689,-0.037
1154,0.048,-0.454,-0.501,0.203,0.275,-0.477,0.190,0.206,0.549,0.464,0.584,0.533,0.137,-0.688,-0.038
1155,0.047,-0.450,-0.496,0.201,0.272,-0.473,0.191,0.207,0.548,0.465,0.584,0.538,0.141,-0.688,-0.038
1156,0.044,-0.454,-0.498,0.204,0.272,-0.476,0.190,0.206,0.550,0.465,0.585,0.539,0.141,-0.686,-0.037
1157,0.046,-0.466,-0.511,0.209,0.279,-0.488,0.192,0.210,0.553,0.467,0.587,0.538,0.139,-0.692,-0.036
1158,0.049,-0.466,-0.514,0.207,0.282,-0.490,0.195,0.212,0.555,0.467,0.588,0.539,0.140,-0.695,-0.035
1159,0.046,-0.467,-0.512,0.209,0.280,-0.489,0.194,0.211,0.552,0.466,0.586,0.539,0.140,-0.692,-0.035
1160,0.046,-0.468,-0.513,0.209,0.281,-0.490,0.194,0.213,0.554,0.467,0.586,0.542,0.139,-0.692,-0.036
1161,0.045,-0.461,-0.506,0.206,0.276,-0.483,0.197,0.215,0.557,0.467,0.588,0.541,0.138,-0.688,-0.037
1162,0.049,-0.450,-0.498,0.200,0.274,-0.473,0.195,0.215,0.555,0.467,0.589,0.541,0.141,-0.681,-0.041
1163,0.054,-0.444,-0.496,0.194,0.276,-0.470,0.192,0.213,0.559,0.470,0.590,0.544,0.141,-0.678,-0.042
1164,0.052,-0.445,-0.496,0.195,0.275,-0.470,0.198,0.217,0.556,0.470,0.589,0.545,0.140,-0.678,-0.042
1165,0.053,-0.446,-0.498,0.196,0.276,-0.472,0.200,0.221,0.559,0.471,0.590,0.547,0.139,-0.679,-0.044
1166,0.053,-0.442,-0.494,0.193,0.274,-0.468,0.195,0.215,0.560,0.471,0.591,0.545,0.141,-0.675,-0.043
1167,0.057,-0.430,-0.486,0.186,0.272,-0.459,0.190,0.213,0.556,0.469,0.591,0.545,0.141,-0.671,-0.044
1168,0.057,-0.428,-0.484,0.185,0.271,-0.456,0.199,0.220,0.561,0.474,0.593,0.547,0.141,-0.670,-0.048
1169,0.054,-0.432,-0.486,0.189,0.270,-0.459,0.203,0.222,0.562,0.474,0.595,0.550,0.147,-0.671,-0.046
1170,0.054,-0.434,-0.487,0.190,0.271,-0.461,0.197,0.222,0.565,0.474,0.596,0.552,0.144,-0.671,-0.048
1171,0.053,-0.434,-0.487,0.190,0.271,-0.461,0.206,0.230,0.572,0.481,0.601,0.554,0.140,-0.671,-0.051
1172,0.052,-0.439,-0.491,0.193,0.272,-0.465,0.215,0.235,0.574,0.484,0.604,0.558,0.145,-0.671,-0.051
1173,0.060,-0.439,-0.498,0.189,0.280,-0.469,0.215,0.234,0.573,0.481,0.604,0.557,0.146,-0.670,-0.053
1174,0.062,-0.434,-0.496,0.185,0.280,-0.465,0.211,0.235,0.573,0.481,0.604,0.555,0.147,-0.666,-0.056
1175,0.058,-0.430,-0.487,0.186,0.273,-0.459,0.219,0.238,0.574,0.483,0.604,0.558,0.143,-0.661,-0.059
1176,0.053,-0.434,-0.487,0.190,0.271,-0.461,0.224,0.240,0.576,0.484,0.607,0.559,0.136,-0.662,-0.062
1177,0.051,-0.440,-0.489,0.194,0.271,-0.465,0.226,0.245,0.581,0.490,0.610,0.562,0.137,-0.664,-0.059
1178,0.054,-0.438,-0.491,0.191,0.273,-0.465,0.230,0.247,0.583,0.492,0.612,0.564,0.138,-0.665,-0.061
1179,0.059,-0.430,-0.489,0.185,0.274,-0.460,0.231,0.248,0.584,0.492,0.612,0.562,0.137,-0.661,-0.065
1180,0.060,-0.425,-0.484,0.181,0.273,-0.455,0.232,0.250,0.585,0.493,0.610,0.563,0.139,-0.656,-0.065
1181,0.058,-0.423,-0.480,0.182,0.269,-0.452,0.232,0.249,0.586,0.493,0.610,0.561,0.138,-0.652,-0.064
1182,0.057,-0.411,-0.467,0.176,0.262,-0.440,0.234,0.251,0.585,0.497,0.615,0.565,0.140,-0.642,-0.067
1183,0.057,-0.403,-0.459,0.172,0.258,-0.430,0.239,0.256,0.590,0.500,0.619,0.570,0.141,-0.639,-0.071
1184,0.058,-0.403,-0.459,0.172,0.259,-0.431,0.244,0.261,0.595,0.504,0.619,0.570,0.140,-0.634,-0.073
1185,0.060,-0.404,-0.464,0.171,0.263,-0.434,0.240,0.258,0.593,0.502,0.619,0.568,0.140,-0.634,-0.072
1186,0.059,-0.398,-0.456,0.169,0.258,-0.427,0.239,0.259,0.593,0.502,0.618,0.569,0.141,-0.631,-0.072
1187,0.057,-0.388,-0.444,0.165,0.251,-0.415,0.242,0.259,0.592,0.503,0.617,0.568,0.140,-0.620,-0.074
1188,0.058,-0.388,-0.444,0.165,0.251,-0.416,0.247,0.261,0.596,0.504,0.618,0.568,0.139,-0.623,-0.076
1189,0.058,-0.387,-0.444,0.164,0.251,-0.415,0.246,0.262,0.596,0.506,0.617,0.570,0.139,-0.625,-0.077
1190,0.059,-0.391,-0.450,0.165,0.255,-0.420,0.245,0.261,0.601,0.509,0.619,0.571,0.140,-0.627,-0.076
1191,0.064,-0.395,-0.459,0.166,0.261,-0.427,0.248,0.267,0.601,0.509,0.620,0.571,0.142,-0.630,-0.074
1192,0.064,-0.403,-0.467,0.169,0.266,-0.435,0.242,0.264,0.593,0.503,0.617,0.571,0.140,-0.634,-0.070
1193,0.064,-0.403,-0.466,0.169,0.265,-0.434,0.241,0.262,0.595,0.504,0.617,0.571,0.139,-0.636,-0.069
1194,0.065,-0.398,-0.462,0.167,0.264,-0.430,0.242,0.263,0.593,0.503,0.615,0.569,0.139,-0.634,-0.070
1195,0.062,-0.397,-0.459,0.166,0.261,-0.427,0.240,0.258,0.592,0.503,0.615,0.570,0.139,-0.631,-0.070
1196,0.060,-0.402,-0.461,0.170,0.261,-0.431,0.237,0.257,0.592,0.504,0.615,0.570,0.137,-0.637,-0.068
1197,0.067,-0.410,-0.476,0.171,0.272,-0.443,0.235,0.257,0.592,0.503,0.614,0.569,0.139,-0.645,-0.065
1198,0.070,-0.405,-0.475,0.166,0.273,-0.440,0.239,0.257,0.593,0.505,0.617,0.571,0.142,-0.640,-0.067
1199,0.068,-0.398,-0.465,0.165,0.267,-0.431,0.243,0.266,0.598,0.508,0.620,0.573,0.141,-0.630,-0.069
1200,0.068,-0.389,-0.457,0.161,0.262,-0.422,0.245,0.270,0.603,0.514,0.623,0.577,0.142,-0.624,-0.070
1201,0.073,-0.383,-0.456,0.154,0.265,-0.419,0.243,0.267,0.604,0.514,0.625,0.579,0.144,-0.621,-0.070
1202,0.078,-0.373,-0.450,0.147,0.264,-0.411,0.246,0.268,0.607,0.516,0.627,0.580,0.145,-0.611,-0.072
1203,0.080,-0.363,-0.444,0.141,0.262,-0.404,0.248,0.270,0.607,0.519,0.629,0.584,0.147,-0.605,-0.072
1204,0.080,-0.365,-0.444,0.142,0.262,-0.405,0.247,0.273,0.609,0.522,0.633,0.588,0.147,-0.607,-0.072
1205,0.077,-0.373,-0.450,0.147,0.264,-0.411,0.254,0.277,0.616,0.529,0.641,0.595,0.146,-0.610,-0.074
1206,0.074,-0.368,-0.442,0.147,0.259,-0.405,0.259,0.285,0.622,0.536,0.649,0.602,0.149,-0.604,-0.075
1207,0.075,-0.359,-0.434,0.141,0.255,-0.397,0.251,0.278,0.617,0.531,0.644,0.599,0.150,-0.600,-0.074
